Created as New Dataset,Sample 002 By FTIR User 2.0 Date Friday, April 12 2024
cm-1,%T
4000.00,100.73
3999.00,100.73
3998.00,100.73
3997.00,100.73
3996.00,100.74
3995.00,100.74
3994.00,100.74
3993.00,100.74
3992.00,100.73
3991.00,100.73
3990.00,100.73
3989.00,100.73
3988.00,100.73
3987.00,100.73
3986.00,100.73
3985.00,100.73
3984.00,100.73
3983.00,100.73
3982.00,100.73
3981.00,100.74
3980.00,100.74
3979.00,100.73
3978.00,100.73
3977.00,100.73
3976.00,100.73
3975.00,100.73
3974.00,100.73
3973.00,100.73
3972.00,100.73
3971.00,100.73
3970.00,100.73
3969.00,100.73
3968.00,100.73
3967.00,100.73
3966.00,100.73
3965.00,100.73
3964.00,100.73
3963.00,100.73
3962.00,100.73
3961.00,100.73
3960.00,100.72
3959.00,100.72
3958.00,100.72
3957.00,100.72
3956.00,100.72
3955.00,100.72
3954.00,100.72
3953.00,100.72
3952.00,100.72
3951.00,100.72
3950.00,100.72
3949.00,100.72
3948.00,100.72
3947.00,100.72
3946.00,100.71
3945.00,100.71
3944.00,100.70
3943.00,100.71
3942.00,100.71
3941.00,100.72
3940.00,100.72
3939.00,100.72
3938.00,100.72
3937.00,100.72
3936.00,100.72
3935.00,100.72
3934.00,100.72
3933.00,100.72
3932.00,100.72
3931.00,100.72
3930.00,100.72
3929.00,100.72
3928.00,100.71
3927.00,100.71
3926.00,100.71
3925.00,100.70
3924.00,100.70
3923.00,100.70
3922.00,100.71
3921.00,100.71
3920.00,100.71
3919.00,100.70
3918.00,100.70
3917.00,100.71
3916.00,100.71
3915.00,100.71
3914.00,100.71
3913.00,100.71
3912.00,100.71
3911.00,100.71
3910.00,100.71
3909.00,100.71
3908.00,100.72
3907.00,100.72
3906.00,100.72
3905.00,100.71
3904.00,100.71
3903.00,100.70
3902.00,100.69
3901.00,100.68
3900.00,100.67
3899.00,100.66
3898.00,100.66
3897.00,100.67
3896.00,100.68
3895.00,100.68
3894.00,100.69
3893.00,100.69
3892.00,100.69
3891.00,100.69
3890.00,100.69
3889.00,100.69
3888.00,100.69
3887.00,100.68
3886.00,100.68
3885.00,100.68
3884.00,100.69
3883.00,100.69
3882.00,100.69
3881.00,100.68
3880.00,100.67
3879.00,100.67
3878.00,100.68
3877.00,100.68
3876.00,100.68
3875.00,100.68
3874.00,100.67
3873.00,100.68
3872.00,100.69
3871.00,100.68
3870.00,100.67
3869.00,100.66
3868.00,100.66
3867.00,100.66
3866.00,100.66
3865.00,100.66
3864.00,100.66
3863.00,100.66
3862.00,100.67
3861.00,100.67
3860.00,100.67
3859.00,100.66
3858.00,100.66
3857.00,100.66
3856.00,100.66
3855.00,100.67
3854.00,100.67
3853.00,100.66
3852.00,100.64
3851.00,100.64
3850.00,100.64
3849.00,100.64
3848.00,100.64
3847.00,100.64
3846.00,100.65
3845.00,100.66
3844.00,100.66
3843.00,100.67
3842.00,100.68
3841.00,100.68
3840.00,100.68
3839.00,100.67
3838.00,100.66
3837.00,100.65
3836.00,100.65
3835.00,100.65
3834.00,100.65
3833.00,100.64
3832.00,100.64
3831.00,100.64
3830.00,100.65
3829.00,100.66
3828.00,100.66
3827.00,100.67
3826.00,100.67
3825.00,100.68
3824.00,100.68
3823.00,100.68
3822.00,100.67
3821.00,100.66
3820.00,100.65
3819.00,100.65
3818.00,100.65
3817.00,100.63
3816.00,100.62
3815.00,100.62
3814.00,100.64
3813.00,100.66
3812.00,100.67
3811.00,100.68
3810.00,100.68
3809.00,100.68
3808.00,100.68
3807.00,100.68
3806.00,100.69
3805.00,100.69
3804.00,100.68
3803.00,100.67
3802.00,100.65
3801.00,100.65
3800.00,100.65
3799.00,100.65
3798.00,100.64
3797.00,100.63
3796.00,100.62
3795.00,100.63
3794.00,100.65
3793.00,100.66
3792.00,100.67
3791.00,100.67
3790.00,100.68
3789.00,100.68
3788.00,100.69
3787.00,100.69
3786.00,100.69
3785.00,100.69
3784.00,100.68
3783.00,100.68
3782.00,100.67
3781.00,100.67
3780.00,100.66
3779.00,100.66
3778.00,100.66
3777.00,100.66
3776.00,100.67
3775.00,100.67
3774.00,100.67
3773.00,100.67
3772.00,100.67
3771.00,100.67
3770.00,100.67
3769.00,100.67
3768.00,100.68
3767.00,100.67
3766.00,100.66
3765.00,100.65
3764.00,100.65
3763.00,100.65
3762.00,100.65
3761.00,100.65
3760.00,100.64
3759.00,100.64
3758.00,100.64
3757.00,100.65
3756.00,100.65
3755.00,100.65
3754.00,100.65
3753.00,100.64
3752.00,100.64
3751.00,100.64
3750.00,100.63
3749.00,100.62
3748.00,100.61
3747.00,100.59
3746.00,100.57
3745.00,100.56
3744.00,100.56
3743.00,100.58
3742.00,100.61
3741.00,100.62
3740.00,100.62
3739.00,100.62
3738.00,100.62
3737.00,100.63
3736.00,100.63
3735.00,100.63
3734.00,100.61
3733.00,100.59
3732.00,100.59
3731.00,100.59
3730.00,100.60
3729.00,100.60
3728.00,100.61
3727.00,100.61
3726.00,100.62
3725.00,100.63
3724.00,100.64
3723.00,100.64
3722.00,100.64
3721.00,100.63
3720.00,100.63
3719.00,100.63
3718.00,100.64
3717.00,100.64
3716.00,100.65
3715.00,100.65
3714.00,100.65
3713.00,100.65
3712.00,100.64
3711.00,100.64
3710.00,100.63
3709.00,100.63
3708.00,100.64
3707.00,100.64
3706.00,100.64
3705.00,100.64
3704.00,100.64
3703.00,100.64
3702.00,100.64
3701.00,100.64
3700.00,100.64
3699.00,100.65
3698.00,100.65
3697.00,100.66
3696.00,100.66
3695.00,100.67
3694.00,100.67
3693.00,100.68
3692.00,100.68
3691.00,100.68
3690.00,100.67
3689.00,100.65
3688.00,100.63
3687.00,100.62
3686.00,100.62
3685.00,100.63
3684.00,100.63
3683.00,100.64
3682.00,100.64
3681.00,100.65
3680.00,100.66
3679.00,100.66
3678.00,100.66
3677.00,100.65
3676.00,100.63
3675.00,100.61
3674.00,100.60
3673.00,100.60
3672.00,100.61
3671.00,100.59
3670.00,100.58
3669.00,100.57
3668.00,100.58
3667.00,100.60
3666.00,100.61
3665.00,100.62
3664.00,100.62
3663.00,100.63
3662.00,100.64
3661.00,100.65
3660.00,100.66
3659.00,100.67
3658.00,100.67
3657.00,100.66
3656.00,100.65
3655.00,100.65
3654.00,100.65
3653.00,100.64
3652.00,100.64
3651.00,100.63
3650.00,100.62
3649.00,100.60
3648.00,100.58
3647.00,100.56
3646.00,100.56
3645.00,100.56
3644.00,100.57
3643.00,100.58
3642.00,100.59
3641.00,100.60
3640.00,100.61
3639.00,100.62
3638.00,100.63
3637.00,100.63
3636.00,100.64
3635.00,100.64
3634.00,100.64
3633.00,100.64
3632.00,100.64
3631.00,100.64
3630.00,100.63
3629.00,100.61
3628.00,100.59
3627.00,100.58
3626.00,100.59
3625.00,100.59
3624.00,100.60
3623.00,100.60
3622.00,100.60
3621.00,100.60
3620.00,100.60
3619.00,100.59
3618.00,100.58
3617.00,100.57
3616.00,100.57
3615.00,100.56
3614.00,100.56
3613.00,100.56
3612.00,100.56
3611.00,100.57
3610.00,100.57
3609.00,100.56
3608.00,100.56
3607.00,100.56
3606.00,100.56
3605.00,100.57
3604.00,100.57
3603.00,100.57
3602.00,100.57
3601.00,100.57
3600.00,100.58
3599.00,100.58
3598.00,100.58
3597.00,100.57
3596.00,100.55
3595.00,100.54
3594.00,100.54
3593.00,100.55
3592.00,100.55
3591.00,100.56
3590.00,100.56
3589.00,100.55
3588.00,100.54
3587.00,100.54
3586.00,100.53
3585.00,100.52
3584.00,100.52
3583.00,100.52
3582.00,100.52
3581.00,100.52
3580.00,100.52
3579.00,100.52
3578.00,100.52
3577.00,100.52
3576.00,100.52
3575.00,100.52
3574.00,100.52
3573.00,100.52
3572.00,100.52
3571.00,100.52
3570.00,100.52
3569.00,100.51
3568.00,100.49
3567.00,100.47
3566.00,100.46
3565.00,100.45
3564.00,100.44
3563.00,100.44
3562.00,100.44
3561.00,100.44
3560.00,100.44
3559.00,100.44
3558.00,100.45
3557.00,100.45
3556.00,100.45
3555.00,100.45
3554.00,100.45
3553.00,100.44
3552.00,100.44
3551.00,100.43
3550.00,100.42
3549.00,100.42
3548.00,100.41
3547.00,100.40
3546.00,100.40
3545.00,100.40
3544.00,100.40
3543.00,100.40
3542.00,100.39
3541.00,100.39
3540.00,100.38
3539.00,100.38
3538.00,100.37
3537.00,100.38
3536.00,100.38
3535.00,100.38
3534.00,100.37
3533.00,100.36
3532.00,100.35
3531.00,100.35
3530.00,100.34
3529.00,100.33
3528.00,100.33
3527.00,100.32
3526.00,100.32
3525.00,100.32
3524.00,100.31
3523.00,100.31
3522.00,100.31
3521.00,100.30
3520.00,100.30
3519.00,100.29
3518.00,100.28
3517.00,100.28
3516.00,100.28
3515.00,100.28
3514.00,100.28
3513.00,100.28
3512.00,100.27
3511.00,100.26
3510.00,100.25
3509.00,100.24
3508.00,100.23
3507.00,100.23
3506.00,100.23
3505.00,100.22
3504.00,100.22
3503.00,100.22
3502.00,100.22
3501.00,100.21
3500.00,100.21
3499.00,100.20
3498.00,100.18
3497.00,100.17
3496.00,100.17
3495.00,100.16
3494.00,100.16
3493.00,100.16
3492.00,100.16
3491.00,100.15
3490.00,100.15
3489.00,100.15
3488.00,100.14
3487.00,100.14
3486.00,100.14
3485.00,100.13
3484.00,100.12
3483.00,100.12
3482.00,100.11
3481.00,100.11
3480.00,100.10
3479.00,100.10
3478.00,100.09
3477.00,100.09
3476.00,100.08
3475.00,100.07
3474.00,100.07
3473.00,100.07
3472.00,100.06
3471.00,100.06
3470.00,100.06
3469.00,100.05
3468.00,100.05
3467.00,100.05
3466.00,100.04
3465.00,100.04
3464.00,100.03
3463.00,100.02
3462.00,100.02
3461.00,100.01
3460.00,100.01
3459.00,100.00
3458.00,100.00
3457.00,99.99
3456.00,99.98
3455.00,99.97
3454.00,99.97
3453.00,99.96
3452.00,99.96
3451.00,99.95
3450.00,99.94
3449.00,99.94
3448.00,99.93
3447.00,99.93
3446.00,99.92
3445.00,99.92
3444.00,99.91
3443.00,99.91
3442.00,99.90
3441.00,99.90
3440.00,99.89
3439.00,99.89
3438.00,99.89
3437.00,99.89
3436.00,99.89
3435.00,99.88
3434.00,99.88
3433.00,99.87
3432.00,99.86
3431.00,99.85
3430.00,99.85
3429.00,99.84
3428.00,99.84
3427.00,99.83
3426.00,99.82
3425.00,99.82
3424.00,99.81
3423.00,99.81
3422.00,99.80
3421.00,99.79
3420.00,99.79
3419.00,99.79
3418.00,99.78
3417.00,99.77
3416.00,99.77
3415.00,99.76
3414.00,99.76
3413.00,99.76
3412.00,99.76
3411.00,99.76
3410.00,99.75
3409.00,99.75
3408.00,99.74
3407.00,99.74
3406.00,99.73
3405.00,99.73
3404.00,99.73
3403.00,99.73
3402.00,99.73
3401.00,99.72
3400.00,99.71
3399.00,99.71
3398.00,99.70
3397.00,99.70
3396.00,99.70
3395.00,99.69
3394.00,99.69
3393.00,99.69
3392.00,99.68
3391.00,99.68
3390.00,99.68
3389.00,99.68
3388.00,99.67
3387.00,99.66
3386.00,99.66
3385.00,99.66
3384.00,99.65
3383.00,99.65
3382.00,99.64
3381.00,99.64
3380.00,99.64
3379.00,99.64
3378.00,99.63
3377.00,99.63
3376.00,99.62
3375.00,99.62
3374.00,99.61
3373.00,99.61
3372.00,99.61
3371.00,99.61
3370.00,99.61
3369.00,99.61
3368.00,99.61
3367.00,99.60
3366.00,99.59
3365.00,99.58
3364.00,99.58
3363.00,99.57
3362.00,99.57
3361.00,99.57
3360.00,99.57
3359.00,99.57
3358.00,99.56
3357.00,99.56
3356.00,99.56
3355.00,99.56
3354.00,99.56
3353.00,99.56
3352.00,99.56
3351.00,99.56
3350.00,99.55
3349.00,99.55
3348.00,99.55
3347.00,99.55
3346.00,99.55
3345.00,99.55
3344.00,99.55
3343.00,99.54
3342.00,99.54
3341.00,99.53
3340.00,99.53
3339.00,99.53
3338.00,99.53
3337.00,99.53
3336.00,99.53
3335.00,99.53
3334.00,99.53
3333.00,99.53
3332.00,99.53
3331.00,99.53
3330.00,99.53
3329.00,99.53
3328.00,99.53
3327.00,99.53
3326.00,99.53
3325.00,99.53
3324.00,99.53
3323.00,99.52
3322.00,99.52
3321.00,99.52
3320.00,99.52
3319.00,99.52
3318.00,99.53
3317.00,99.52
3316.00,99.52
3315.00,99.52
3314.00,99.52
3313.00,99.52
3312.00,99.52
3311.00,99.52
3310.00,99.52
3309.00,99.52
3308.00,99.52
3307.00,99.52
3306.00,99.52
3305.00,99.52
3304.00,99.52
3303.00,99.53
3302.00,99.53
3301.00,99.53
3300.00,99.53
3299.00,99.53
3298.00,99.53
3297.00,99.54
3296.00,99.54
3295.00,99.54
3294.00,99.54
3293.00,99.54
3292.00,99.53
3291.00,99.53
3290.00,99.53
3289.00,99.53
3288.00,99.53
3287.00,99.53
3286.00,99.54
3285.00,99.54
3284.00,99.55
3283.00,99.55
3282.00,99.55
3281.00,99.55
3280.00,99.54
3279.00,99.55
3278.00,99.55
3277.00,99.55
3276.00,99.55
3275.00,99.55
3274.00,99.55
3273.00,99.55
3272.00,99.55
3271.00,99.55
3270.00,99.56
3269.00,99.57
3268.00,99.57
3267.00,99.57
3266.00,99.57
3265.00,99.57
3264.00,99.57
3263.00,99.58
3262.00,99.58
3261.00,99.59
3260.00,99.59
3259.00,99.59
3258.00,99.59
3257.00,99.59
3256.00,99.58
3255.00,99.58
3254.00,99.58
3253.00,99.59
3252.00,99.60
3251.00,99.60
3250.00,99.61
3249.00,99.61
3248.00,99.61
3247.00,99.61
3246.00,99.62
3245.00,99.62
3244.00,99.62
3243.00,99.62
3242.00,99.63
3241.00,99.63
3240.00,99.63
3239.00,99.63
3238.00,99.64
3237.00,99.64
3236.00,99.64
3235.00,99.65
3234.00,99.65
3233.00,99.65
3232.00,99.66
3231.00,99.66
3230.00,99.67
3229.00,99.68
3228.00,99.68
3227.00,99.68
3226.00,99.69
3225.00,99.69
3224.00,99.69
3223.00,99.69
3222.00,99.69
3221.00,99.69
3220.00,99.70
3219.00,99.71
3218.00,99.71
3217.00,99.71
3216.00,99.72
3215.00,99.72
3214.00,99.72
3213.00,99.73
3212.00,99.73
3211.00,99.74
3210.00,99.74
3209.00,99.75
3208.00,99.75
3207.00,99.76
3206.00,99.76
3205.00,99.76
3204.00,99.77
3203.00,99.77
3202.00,99.77
3201.00,99.77
3200.00,99.78
3199.00,99.79
3198.00,99.79
3197.00,99.80
3196.00,99.80
3195.00,99.81
3194.00,99.81
3193.00,99.82
3192.00,99.82
3191.00,99.83
3190.00,99.83
3189.00,99.84
3188.00,99.84
3187.00,99.85
3186.00,99.85
3185.00,99.85
3184.00,99.86
3183.00,99.86
3182.00,99.86
3181.00,99.87
3180.00,99.87
3179.00,99.87
3178.00,99.88
3177.00,99.88
3176.00,99.89
3175.00,99.89
3174.00,99.90
3173.00,99.91
3172.00,99.92
3171.00,99.92
3170.00,99.93
3169.00,99.93
3168.00,99.94
3167.00,99.94
3166.00,99.95
3165.00,99.95
3164.00,99.96
3163.00,99.96
3162.00,99.96
3161.00,99.96
3160.00,99.96
3159.00,99.97
3158.00,99.97
3157.00,99.98
3156.00,99.98
3155.00,99.99
3154.00,99.99
3153.00,99.99
3152.00,100.00
3151.00,100.01
3150.00,100.01
3149.00,100.02
3148.00,100.02
3147.00,100.03
3146.00,100.03
3145.00,100.04
3144.00,100.04
3143.00,100.05
3142.00,100.05
3141.00,100.06
3140.00,100.06
3139.00,100.07
3138.00,100.07
3137.00,100.07
3136.00,100.08
3135.00,100.08
3134.00,100.09
3133.00,100.09
3132.00,100.10
3131.00,100.10
3130.00,100.11
3129.00,100.11
3128.00,100.12
3127.00,100.12
3126.00,100.12
3125.00,100.13
3124.00,100.13
3123.00,100.13
3122.00,100.13
3121.00,100.14
3120.00,100.15
3119.00,100.16
3118.00,100.16
3117.00,100.17
3116.00,100.17
3115.00,100.17
3114.00,100.17
3113.00,100.17
3112.00,100.18
3111.00,100.18
3110.00,100.19
3109.00,100.19
3108.00,100.19
3107.00,100.19
3106.00,100.20
3105.00,100.20
3104.00,100.20
3103.00,100.20
3102.00,100.21
3101.00,100.22
3100.00,100.22
3099.00,100.22
3098.00,100.22
3097.00,100.22
3096.00,100.23
3095.00,100.23
3094.00,100.24
3093.00,100.24
3092.00,100.25
3091.00,100.26
3090.00,100.26
3089.00,100.26
3088.00,100.26
3087.00,100.26
3086.00,100.27
3085.00,100.27
3084.00,100.28
3083.00,100.28
3082.00,100.28
3081.00,100.28
3080.00,100.29
3079.00,100.29
3078.00,100.29
3077.00,100.30
3076.00,100.30
3075.00,100.30
3074.00,100.30
3073.00,100.30
3072.00,100.30
3071.00,100.31
3070.00,100.31
3069.00,100.31
3068.00,100.31
3067.00,100.32
3066.00,100.32
3065.00,100.32
3064.00,100.32
3063.00,100.33
3062.00,100.33
3061.00,100.32
3060.00,100.33
3059.00,100.33
3058.00,100.33
3057.00,100.34
3056.00,100.34
3055.00,100.34
3054.00,100.34
3053.00,100.35
3052.00,100.35
3051.00,100.35
3050.00,100.36
3049.00,100.36
3048.00,100.36
3047.00,100.36
3046.00,100.36
3045.00,100.36
3044.00,100.37
3043.00,100.37
3042.00,100.37
3041.00,100.37
3040.00,100.37
3039.00,100.37
3038.00,100.38
3037.00,100.38
3036.00,100.38
3035.00,100.39
3034.00,100.39
3033.00,100.39
3032.00,100.39
3031.00,100.39
3030.00,100.38
3029.00,100.38
3028.00,100.38
3027.00,100.39
3026.00,100.39
3025.00,100.40
3024.00,100.40
3023.00,100.40
3022.00,100.40
3021.00,100.40
3020.00,100.40
3019.00,100.40
3018.00,100.41
3017.00,100.41
3016.00,100.41
3015.00,100.41
3014.00,100.41
3013.00,100.41
3012.00,100.41
3011.00,100.42
3010.00,100.42
3009.00,100.42
3008.00,100.41
3007.00,100.41
3006.00,100.41
3005.00,100.41
3004.00,100.41
3003.00,100.41
3002.00,100.41
3001.00,100.41
3000.00,100.41
2999.00,100.41
2998.00,100.40
2997.00,100.40
2996.00,100.40
2995.00,100.40
2994.00,100.40
2993.00,100.40
2992.00,100.41
2991.00,100.41
2990.00,100.41
2989.00,100.40
2988.00,100.40
2987.00,100.39
2986.00,100.38
2985.00,100.38
2984.00,100.38
2983.00,100.38
2982.00,100.37
2981.00,100.37
2980.00,100.37
2979.00,100.36
2978.00,100.35
2977.00,100.35
2976.00,100.35
2975.00,100.34
2974.00,100.34
2973.00,100.34
2972.00,100.33
2971.00,100.33
2970.00,100.32
2969.00,100.32
2968.00,100.31
2967.00,100.31
2966.00,100.30
2965.00,100.30
2964.00,100.29
2963.00,100.28
2962.00,100.28
2961.00,100.27
2960.00,100.27
2959.00,100.26
2958.00,100.25
2957.00,100.25
2956.00,100.24
2955.00,100.23
2954.00,100.23
2953.00,100.22
2952.00,100.22
2951.00,100.21
2950.00,100.21
2949.00,100.20
2948.00,100.20
2947.00,100.20
2946.00,100.20
2945.00,100.20
2944.00,100.19
2943.00,100.19
2942.00,100.19
2941.00,100.18
2940.00,100.18
2939.00,100.18
2938.00,100.18
2937.00,100.18
2936.00,100.19
2935.00,100.19
2934.00,100.19
2933.00,100.20
2932.00,100.21
2931.00,100.22
2930.00,100.22
2929.00,100.23
2928.00,100.24
2927.00,100.25
2926.00,100.26
2925.00,100.26
2924.00,100.27
2923.00,100.28
2922.00,100.28
2921.00,100.29
2920.00,100.30
2919.00,100.30
2918.00,100.31
2917.00,100.31
2916.00,100.30
2915.00,100.30
2914.00,100.29
2913.00,100.29
2912.00,100.28
2911.00,100.27
2910.00,100.27
2909.00,100.26
2908.00,100.26
2907.00,100.26
2906.00,100.26
2905.00,100.25
2904.00,100.25
2903.00,100.24
2902.00,100.24
2901.00,100.24
2900.00,100.23
2899.00,100.23
2898.00,100.23
2897.00,100.23
2896.00,100.23
2895.00,100.22
2894.00,100.21
2893.00,100.20
2892.00,100.20
2891.00,100.19
2890.00,100.18
2889.00,100.18
2888.00,100.17
2887.00,100.17
2886.00,100.16
2885.00,100.16
2884.00,100.16
2883.00,100.16
2882.00,100.16
2881.00,100.16
2880.00,100.16
2879.00,100.16
2878.00,100.16
2877.00,100.16
2876.00,100.17
2875.00,100.17
2874.00,100.18
2873.00,100.18
2872.00,100.19
2871.00,100.19
2870.00,100.20
2869.00,100.20
2868.00,100.21
2867.00,100.21
2866.00,100.22
2865.00,100.22
2864.00,100.23
2863.00,100.23
2862.00,100.24
2861.00,100.25
2860.00,100.26
2859.00,100.27
2858.00,100.28
2857.00,100.28
2856.00,100.29
2855.00,100.30
2854.00,100.31
2853.00,100.31
2852.00,100.32
2851.00,100.32
2850.00,100.32
2849.00,100.32
2848.00,100.32
2847.00,100.32
2846.00,100.31
2845.00,100.31
2844.00,100.30
2843.00,100.30
2842.00,100.30
2841.00,100.30
2840.00,100.30
2839.00,100.30
2838.00,100.31
2837.00,100.31
2836.00,100.31
2835.00,100.31
2834.00,100.31
2833.00,100.31
2832.00,100.31
2831.00,100.32
2830.00,100.32
2829.00,100.32
2828.00,100.32
2827.00,100.32
2826.00,100.33
2825.00,100.33
2824.00,100.33
2823.00,100.33
2822.00,100.34
2821.00,100.34
2820.00,100.34
2819.00,100.34
2818.00,100.34
2817.00,100.34
2816.00,100.34
2815.00,100.35
2814.00,100.35
2813.00,100.35
2812.00,100.35
2811.00,100.35
2810.00,100.35
2809.00,100.36
2808.00,100.36
2807.00,100.36
2806.00,100.36
2805.00,100.36
2804.00,100.36
2803.00,100.36
2802.00,100.36
2801.00,100.37
2800.00,100.37
2799.00,100.37
2798.00,100.37
2797.00,100.37
2796.00,100.37
2795.00,100.37
2794.00,100.37
2793.00,100.37
2792.00,100.37
2791.00,100.38
2790.00,100.38
2789.00,100.38
2788.00,100.38
2787.00,100.38
2786.00,100.38
2785.00,100.38
2784.00,100.38
2783.00,100.38
2782.00,100.38
2781.00,100.38
2780.00,100.38
2779.00,100.38
2778.00,100.39
2777.00,100.39
2776.00,100.39
2775.00,100.38
2774.00,100.38
2773.00,100.38
2772.00,100.38
2771.00,100.38
2770.00,100.38
2769.00,100.38
2768.00,100.39
2767.00,100.39
2766.00,100.39
2765.00,100.39
2764.00,100.39
2763.00,100.39
2762.00,100.38
2761.00,100.38
2760.00,100.39
2759.00,100.39
2758.00,100.39
2757.00,100.39
2756.00,100.39
2755.00,100.39
2754.00,100.39
2753.00,100.39
2752.00,100.39
2751.00,100.39
2750.00,100.39
2749.00,100.39
2748.00,100.39
2747.00,100.39
2746.00,100.39
2745.00,100.39
2744.00,100.39
2743.00,100.39
2742.00,100.40
2741.00,100.40
2740.00,100.39
2739.00,100.39
2738.00,100.39
2737.00,100.39
2736.00,100.40
2735.00,100.40
2734.00,100.40
2733.00,100.40
2732.00,100.40
2731.00,100.40
2730.00,100.40
2729.00,100.40
2728.00,100.40
2727.00,100.40
2726.00,100.40
2725.00,100.40
2724.00,100.40
2723.00,100.40
2722.00,100.40
2721.00,100.40
2720.00,100.40
2719.00,100.40
2718.00,100.40
2717.00,100.40
2716.00,100.40
2715.00,100.40
2714.00,100.40
2713.00,100.40
2712.00,100.40
2711.00,100.40
2710.00,100.40
2709.00,100.40
2708.00,100.40
2707.00,100.40
2706.00,100.40
2705.00,100.40
2704.00,100.40
2703.00,100.40
2702.00,100.40
2701.00,100.40
2700.00,100.40
2699.00,100.40
2698.00,100.40
2697.00,100.40
2696.00,100.40
2695.00,100.40
2694.00,100.40
2693.00,100.40
2692.00,100.40
2691.00,100.40
2690.00,100.40
2689.00,100.40
2688.00,100.40
2687.00,100.40
2686.00,100.40
2685.00,100.40
2684.00,100.40
2683.00,100.40
2682.00,100.40
2681.00,100.40
2680.00,100.40
2679.00,100.40
2678.00,100.40
2677.00,100.40
2676.00,100.40
2675.00,100.40
2674.00,100.40
2673.00,100.40
2672.00,100.41
2671.00,100.41
2670.00,100.40
2669.00,100.40
2668.00,100.40
2667.00,100.40
2666.00,100.39
2665.00,100.39
2664.00,100.39
2663.00,100.38
2662.00,100.38
2661.00,100.38
2660.00,100.37
2659.00,100.37
2658.00,100.37
2657.00,100.37
2656.00,100.36
2655.00,100.36
2654.00,100.36
2653.00,100.36
2652.00,100.36
2651.00,100.36
2650.00,100.36
2649.00,100.35
2648.00,100.35
2647.00,100.35
2646.00,100.35
2645.00,100.35
2644.00,100.35
2643.00,100.35
2642.00,100.35
2641.00,100.35
2640.00,100.35
2639.00,100.35
2638.00,100.35
2637.00,100.35
2636.00,100.35
2635.00,100.35
2634.00,100.36
2633.00,100.36
2632.00,100.36
2631.00,100.36
2630.00,100.36
2629.00,100.36
2628.00,100.36
2627.00,100.36
2626.00,100.36
2625.00,100.36
2624.00,100.36
2623.00,100.36
2622.00,100.36
2621.00,100.35
2620.00,100.35
2619.00,100.35
2618.00,100.35
2617.00,100.35
2616.00,100.36
2615.00,100.36
2614.00,100.36
2613.00,100.36
2612.00,100.37
2611.00,100.37
2610.00,100.36
2609.00,100.36
2608.00,100.36
2607.00,100.36
2606.00,100.36
2605.00,100.36
2604.00,100.36
2603.00,100.36
2602.00,100.36
2601.00,100.36
2600.00,100.36
2599.00,100.36
2598.00,100.36
2597.00,100.36
2596.00,100.36
2595.00,100.36
2594.00,100.36
2593.00,100.37
2592.00,100.37
2591.00,100.37
2590.00,100.37
2589.00,100.37
2588.00,100.37
2587.00,100.37
2586.00,100.37
2585.00,100.37
2584.00,100.37
2583.00,100.37
2582.00,100.37
2581.00,100.37
2580.00,100.38
2579.00,100.38
2578.00,100.38
2577.00,100.37
2576.00,100.37
2575.00,100.37
2574.00,100.37
2573.00,100.37
2572.00,100.37
2571.00,100.37
2570.00,100.37
2569.00,100.37
2568.00,100.37
2567.00,100.37
2566.00,100.37
2565.00,100.37
2564.00,100.37
2563.00,100.37
2562.00,100.37
2561.00,100.37
2560.00,100.37
2559.00,100.38
2558.00,100.38
2557.00,100.38
2556.00,100.37
2555.00,100.37
2554.00,100.37
2553.00,100.37
2552.00,100.37
2551.00,100.38
2550.00,100.38
2549.00,100.38
2548.00,100.38
2547.00,100.38
2546.00,100.38
2545.00,100.38
2544.00,100.38
2543.00,100.38
2542.00,100.38
2541.00,100.38
2540.00,100.38
2539.00,100.38
2538.00,100.38
2537.00,100.38
2536.00,100.38
2535.00,100.38
2534.00,100.38
2533.00,100.37
2532.00,100.37
2531.00,100.37
2530.00,100.37
2529.00,100.37
2528.00,100.37
2527.00,100.37
2526.00,100.38
2525.00,100.38
2524.00,100.39
2523.00,100.38
2522.00,100.38
2521.00,100.38
2520.00,100.38
2519.00,100.38
2518.00,100.38
2517.00,100.37
2516.00,100.37
2515.00,100.37
2514.00,100.38
2513.00,100.38
2512.00,100.38
2511.00,100.38
2510.00,100.38
2509.00,100.38
2508.00,100.38
2507.00,100.38
2506.00,100.38
2505.00,100.38
2504.00,100.38
2503.00,100.38
2502.00,100.38
2501.00,100.37
2500.00,100.37
2499.00,100.38
2498.00,100.38
2497.00,100.38
2496.00,100.37
2495.00,100.37
2494.00,100.37
2493.00,100.38
2492.00,100.38
2491.00,100.38
2490.00,100.38
2489.00,100.38
2488.00,100.37
2487.00,100.37
2486.00,100.37
2485.00,100.37
2484.00,100.38
2483.00,100.38
2482.00,100.38
2481.00,100.38
2480.00,100.38
2479.00,100.38
2478.00,100.38
2477.00,100.38
2476.00,100.38
2475.00,100.38
2474.00,100.39
2473.00,100.39
2472.00,100.39
2471.00,100.39
2470.00,100.39
2469.00,100.39
2468.00,100.39
2467.00,100.39
2466.00,100.38
2465.00,100.38
2464.00,100.38
2463.00,100.38
2462.00,100.37
2461.00,100.37
2460.00,100.37
2459.00,100.37
2458.00,100.37
2457.00,100.37
2456.00,100.36
2455.00,100.36
2454.00,100.36
2453.00,100.37
2452.00,100.37
2451.00,100.37
2450.00,100.37
2449.00,100.37
2448.00,100.37
2447.00,100.37
2446.00,100.36
2445.00,100.36
2444.00,100.37
2443.00,100.37
2442.00,100.37
2441.00,100.37
2440.00,100.37
2439.00,100.37
2438.00,100.37
2437.00,100.37
2436.00,100.37
2435.00,100.37
2434.00,100.38
2433.00,100.38
2432.00,100.38
2431.00,100.38
2430.00,100.38
2429.00,100.39
2428.00,100.39
2427.00,100.39
2426.00,100.39
2425.00,100.38
2424.00,100.38
2423.00,100.38
2422.00,100.38
2421.00,100.38
2420.00,100.38
2419.00,100.39
2418.00,100.39
2417.00,100.38
2416.00,100.38
2415.00,100.38
2414.00,100.38
2413.00,100.38
2412.00,100.38
2411.00,100.38
2410.00,100.38
2409.00,100.38
2408.00,100.39
2407.00,100.39
2406.00,100.39
2405.00,100.40
2404.00,100.40
2403.00,100.39
2402.00,100.39
2401.00,100.39
2400.00,100.39
2399.00,100.39
2398.00,100.39
2397.00,100.39
2396.00,100.39
2395.00,100.39
2394.00,100.39
2393.00,100.39
2392.00,100.39
2391.00,100.39
2390.00,100.39
2389.00,100.40
2388.00,100.39
2387.00,100.39
2386.00,100.39
2385.00,100.39
2384.00,100.39
2383.00,100.40
2382.00,100.40
2381.00,100.40
2380.00,100.41
2379.00,100.41
2378.00,100.42
2377.00,100.43
2376.00,100.43
2375.00,100.44
2374.00,100.43
2373.00,100.43
2372.00,100.43
2371.00,100.43
2370.00,100.44
2369.00,100.45
2368.00,100.45
2367.00,100.45
2366.00,100.43
2365.00,100.41
2364.00,100.39
2363.00,100.37
2362.00,100.37
2361.00,100.37
2360.00,100.39
2359.00,100.40
2358.00,100.41
2357.00,100.41
2356.00,100.40
2355.00,100.40
2354.00,100.40
2353.00,100.40
2352.00,100.40
2351.00,100.40
2350.00,100.40
2349.00,100.40
2348.00,100.39
2347.00,100.38
2346.00,100.38
2345.00,100.38
2344.00,100.38
2343.00,100.38
2342.00,100.37
2341.00,100.37
2340.00,100.37
2339.00,100.37
2338.00,100.37
2337.00,100.37
2336.00,100.37
2335.00,100.37
2334.00,100.37
2333.00,100.38
2332.00,100.38
2331.00,100.38
2330.00,100.37
2329.00,100.37
2328.00,100.36
2327.00,100.34
2326.00,100.32
2325.00,100.29
2324.00,100.27
2323.00,100.27
2322.00,100.28
2321.00,100.29
2320.00,100.31
2319.00,100.32
2318.00,100.32
2317.00,100.32
2316.00,100.32
2315.00,100.31
2314.00,100.31
2313.00,100.31
2312.00,100.31
2311.00,100.32
2310.00,100.32
2309.00,100.32
2308.00,100.31
2307.00,100.31
2306.00,100.31
2305.00,100.31
2304.00,100.30
2303.00,100.30
2302.00,100.29
2301.00,100.29
2300.00,100.29
2299.00,100.29
2298.00,100.29
2297.00,100.29
2296.00,100.29
2295.00,100.28
2294.00,100.28
2293.00,100.27
2292.00,100.27
2291.00,100.27
2290.00,100.27
2289.00,100.26
2288.00,100.26
2287.00,100.25
2286.00,100.25
2285.00,100.25
2284.00,100.25
2283.00,100.26
2282.00,100.26
2281.00,100.27
2280.00,100.27
2279.00,100.27
2278.00,100.27
2277.00,100.27
2276.00,100.27
2275.00,100.28
2274.00,100.28
2273.00,100.28
2272.00,100.27
2271.00,100.27
2270.00,100.27
2269.00,100.27
2268.00,100.27
2267.00,100.27
2266.00,100.28
2265.00,100.28
2264.00,100.28
2263.00,100.29
2262.00,100.29
2261.00,100.28
2260.00,100.28
2259.00,100.27
2258.00,100.27
2257.00,100.27
2256.00,100.27
2255.00,100.27
2254.00,100.27
2253.00,100.28
2252.00,100.28
2251.00,100.28
2250.00,100.29
2249.00,100.29
2248.00,100.29
2247.00,100.29
2246.00,100.29
2245.00,100.29
2244.00,100.28
2243.00,100.28
2242.00,100.28
2241.00,100.28
2240.00,100.28
2239.00,100.28
2238.00,100.28
2237.00,100.29
2236.00,100.29
2235.00,100.29
2234.00,100.29
2233.00,100.28
2232.00,100.27
2231.00,100.27
2230.00,100.27
2229.00,100.27
2228.00,100.27
2227.00,100.28
2226.00,100.28
2225.00,100.27
2224.00,100.26
2223.00,100.26
2222.00,100.26
2221.00,100.26
2220.00,100.27
2219.00,100.28
2218.00,100.28
2217.00,100.27
2216.00,100.26
2215.00,100.26
2214.00,100.25
2213.00,100.25
2212.00,100.26
2211.00,100.26
2210.00,100.27
2209.00,100.27
2208.00,100.27
2207.00,100.27
2206.00,100.27
2205.00,100.26
2204.00,100.26
2203.00,100.26
2202.00,100.27
2201.00,100.28
2200.00,100.28
2199.00,100.28
2198.00,100.28
2197.00,100.28
2196.00,100.27
2195.00,100.27
2194.00,100.26
2193.00,100.26
2192.00,100.25
2191.00,100.24
2190.00,100.23
2189.00,100.23
2188.00,100.23
2187.00,100.23
2186.00,100.23
2185.00,100.23
2184.00,100.24
2183.00,100.26
2182.00,100.27
2181.00,100.29
2180.00,100.29
2179.00,100.28
2178.00,100.27
2177.00,100.27
2176.00,100.27
2175.00,100.28
2174.00,100.29
2173.00,100.29
2172.00,100.28
2171.00,100.26
2170.00,100.24
2169.00,100.22
2168.00,100.20
2167.00,100.18
2166.00,100.17
2165.00,100.16
2164.00,100.16
2163.00,100.15
2162.00,100.16
2161.00,100.18
2160.00,100.23
2159.00,100.30
2158.00,100.36
2157.00,100.40
2156.00,100.42
2155.00,100.43
2154.00,100.42
2153.00,100.40
2152.00,100.38
2151.00,100.36
2150.00,100.35
2149.00,100.35
2148.00,100.35
2147.00,100.36
2146.00,100.36
2145.00,100.37
2144.00,100.37
2143.00,100.38
2142.00,100.38
2141.00,100.38
2140.00,100.37
2139.00,100.37
2138.00,100.36
2137.00,100.37
2136.00,100.37
2135.00,100.38
2134.00,100.39
2133.00,100.39
2132.00,100.40
2131.00,100.39
2130.00,100.38
2129.00,100.37
2128.00,100.36
2127.00,100.35
2126.00,100.35
2125.00,100.34
2124.00,100.33
2123.00,100.32
2122.00,100.31
2121.00,100.30
2120.00,100.29
2119.00,100.28
2118.00,100.27
2117.00,100.28
2116.00,100.28
2115.00,100.28
2114.00,100.27
2113.00,100.27
2112.00,100.27
2111.00,100.27
2110.00,100.27
2109.00,100.26
2108.00,100.25
2107.00,100.25
2106.00,100.26
2105.00,100.26
2104.00,100.26
2103.00,100.26
2102.00,100.26
2101.00,100.26
2100.00,100.26
2099.00,100.26
2098.00,100.25
2097.00,100.25
2096.00,100.26
2095.00,100.27
2094.00,100.27
2093.00,100.28
2092.00,100.28
2091.00,100.27
2090.00,100.27
2089.00,100.26
2088.00,100.26
2087.00,100.25
2086.00,100.24
2085.00,100.23
2084.00,100.22
2083.00,100.22
2082.00,100.23
2081.00,100.23
2080.00,100.23
2079.00,100.24
2078.00,100.24
2077.00,100.25
2076.00,100.25
2075.00,100.24
2074.00,100.24
2073.00,100.24
2072.00,100.24
2071.00,100.24
2070.00,100.24
2069.00,100.24
2068.00,100.24
2067.00,100.24
2066.00,100.24
2065.00,100.24
2064.00,100.24
2063.00,100.24
2062.00,100.24
2061.00,100.24
2060.00,100.23
2059.00,100.22
2058.00,100.21
2057.00,100.20
2056.00,100.20
2055.00,100.20
2054.00,100.20
2053.00,100.19
2052.00,100.18
2051.00,100.16
2050.00,100.15
2049.00,100.15
2048.00,100.17
2047.00,100.18
2046.00,100.18
2045.00,100.18
2044.00,100.18
2043.00,100.18
2042.00,100.18
2041.00,100.19
2040.00,100.19
2039.00,100.18
2038.00,100.17
2037.00,100.16
2036.00,100.16
2035.00,100.17
2034.00,100.19
2033.00,100.21
2032.00,100.22
2031.00,100.23
2030.00,100.23
2029.00,100.22
2028.00,100.22
2027.00,100.21
2026.00,100.22
2025.00,100.22
2024.00,100.23
2023.00,100.25
2022.00,100.26
2021.00,100.26
2020.00,100.26
2019.00,100.25
2018.00,100.24
2017.00,100.24
2016.00,100.23
2015.00,100.23
2014.00,100.22
2013.00,100.21
2012.00,100.21
2011.00,100.21
2010.00,100.21
2009.00,100.22
2008.00,100.24
2007.00,100.25
2006.00,100.26
2005.00,100.26
2004.00,100.25
2003.00,100.25
2002.00,100.25
2001.00,100.25
2000.00,100.26
1999.00,100.26
1998.00,100.24
1997.00,100.22
1996.00,100.21
1995.00,100.20
1994.00,100.20
1993.00,100.21
1992.00,100.20
1991.00,100.20
1990.00,100.19
1989.00,100.19
1988.00,100.19
1987.00,100.18
1986.00,100.17
1985.00,100.16
1984.00,100.15
1983.00,100.14
1982.00,100.13
1981.00,100.12
1980.00,100.11
1979.00,100.13
1978.00,100.15
1977.00,100.18
1976.00,100.21
1975.00,100.23
1974.00,100.24
1973.00,100.24
1972.00,100.24
1971.00,100.24
1970.00,100.25
1969.00,100.25
1968.00,100.24
1967.00,100.23
1966.00,100.23
1965.00,100.22
1964.00,100.23
1963.00,100.24
1962.00,100.25
1961.00,100.27
1960.00,100.28
1959.00,100.29
1958.00,100.29
1957.00,100.28
1956.00,100.27
1955.00,100.27
1954.00,100.26
1953.00,100.26
1952.00,100.26
1951.00,100.26
1950.00,100.26
1949.00,100.26
1948.00,100.26
1947.00,100.26
1946.00,100.25
1945.00,100.25
1944.00,100.25
1943.00,100.24
1942.00,100.24
1941.00,100.25
1940.00,100.25
1939.00,100.25
1938.00,100.25
1937.00,100.25
1936.00,100.25
1935.00,100.25
1934.00,100.25
1933.00,100.25
1932.00,100.25
1931.00,100.25
1930.00,100.25
1929.00,100.25
1928.00,100.24
1927.00,100.24
1926.00,100.24
1925.00,100.24
1924.00,100.24
1923.00,100.24
1922.00,100.23
1921.00,100.23
1920.00,100.23
1919.00,100.22
1918.00,100.22
1917.00,100.23
1916.00,100.23
1915.00,100.23
1914.00,100.23
1913.00,100.23
1912.00,100.23
1911.00,100.24
1910.00,100.24
1909.00,100.24
1908.00,100.24
1907.00,100.23
1906.00,100.23
1905.00,100.22
1904.00,100.22
1903.00,100.22
1902.00,100.22
1901.00,100.22
1900.00,100.23
1899.00,100.23
1898.00,100.23
1897.00,100.23
1896.00,100.23
1895.00,100.22
1894.00,100.22
1893.00,100.23
1892.00,100.23
1891.00,100.23
1890.00,100.22
1889.00,100.22
1888.00,100.21
1887.00,100.22
1886.00,100.22
1885.00,100.22
1884.00,100.23
1883.00,100.22
1882.00,100.22
1881.00,100.22
1880.00,100.22
1879.00,100.22
1878.00,100.22
1877.00,100.22
1876.00,100.22
1875.00,100.22
1874.00,100.22
1873.00,100.22
1872.00,100.22
1871.00,100.23
1870.00,100.23
1869.00,100.23
1868.00,100.22
1867.00,100.22
1866.00,100.22
1865.00,100.22
1864.00,100.21
1863.00,100.21
1862.00,100.21
1861.00,100.21
1860.00,100.21
1859.00,100.21
1858.00,100.21
1857.00,100.21
1856.00,100.21
1855.00,100.21
1854.00,100.22
1853.00,100.22
1852.00,100.22
1851.00,100.22
1850.00,100.22
1849.00,100.21
1848.00,100.21
1847.00,100.22
1846.00,100.22
1845.00,100.21
1844.00,100.21
1843.00,100.21
1842.00,100.21
1841.00,100.21
1840.00,100.21
1839.00,100.21
1838.00,100.21
1837.00,100.22
1836.00,100.21
1835.00,100.21
1834.00,100.22
1833.00,100.22
1832.00,100.23
1831.00,100.23
1830.00,100.22
1829.00,100.21
1828.00,100.21
1827.00,100.21
1826.00,100.21
1825.00,100.21
1824.00,100.21
1823.00,100.21
1822.00,100.20
1821.00,100.20
1820.00,100.21
1819.00,100.22
1818.00,100.23
1817.00,100.23
1816.00,100.23
1815.00,100.23
1814.00,100.22
1813.00,100.22
1812.00,100.22
1811.00,100.22
1810.00,100.21
1809.00,100.21
1808.00,100.21
1807.00,100.21
1806.00,100.21
1805.00,100.21
1804.00,100.21
1803.00,100.21
1802.00,100.21
1801.00,100.21
1800.00,100.21
1799.00,100.21
1798.00,100.21
1797.00,100.21
1796.00,100.21
1795.00,100.21
1794.00,100.21
1793.00,100.21
1792.00,100.20
1791.00,100.20
1790.00,100.20
1789.00,100.20
1788.00,100.20
1787.00,100.20
1786.00,100.21
1785.00,100.21
1784.00,100.21
1783.00,100.21
1782.00,100.21
1781.00,100.21
1780.00,100.21
1779.00,100.20
1778.00,100.20
1777.00,100.20
1776.00,100.21
1775.00,100.21
1774.00,100.22
1773.00,100.21
1772.00,100.21
1771.00,100.20
1770.00,100.20
1769.00,100.19
1768.00,100.19
1767.00,100.19
1766.00,100.20
1765.00,100.20
1764.00,100.20
1763.00,100.20
1762.00,100.20
1761.00,100.20
1760.00,100.20
1759.00,100.20
1758.00,100.20
1757.00,100.20
1756.00,100.20
1755.00,100.20
1754.00,100.20
1753.00,100.20
1752.00,100.20
1751.00,100.21
1750.00,100.21
1749.00,100.20
1748.00,100.19
1747.00,100.19
1746.00,100.19
1745.00,100.19
1744.00,100.19
1743.00,100.19
1742.00,100.19
1741.00,100.19
1740.00,100.19
1739.00,100.19
1738.00,100.19
1737.00,100.19
1736.00,100.19
1735.00,100.19
1734.00,100.20
1733.00,100.20
1732.00,100.19
1731.00,100.18
1730.00,100.17
1729.00,100.17
1728.00,100.17
1727.00,100.17
1726.00,100.17
1725.00,100.18
1724.00,100.18
1723.00,100.18
1722.00,100.18
1721.00,100.18
1720.00,100.18
1719.00,100.18
1718.00,100.19
1717.00,100.19
1716.00,100.18
1715.00,100.16
1714.00,100.16
1713.00,100.16
1712.00,100.16
1711.00,100.16
1710.00,100.16
1709.00,100.16
1708.00,100.16
1707.00,100.16
1706.00,100.15
1705.00,100.15
1704.00,100.15
1703.00,100.15
1702.00,100.15
1701.00,100.16
1700.00,100.16
1699.00,100.16
1698.00,100.15
1697.00,100.13
1696.00,100.12
1695.00,100.12
1694.00,100.13
1693.00,100.14
1692.00,100.13
1691.00,100.13
1690.00,100.13
1689.00,100.13
1688.00,100.13
1687.00,100.12
1686.00,100.11
1685.00,100.11
1684.00,100.11
1683.00,100.10
1682.00,100.10
1681.00,100.10
1680.00,100.09
1679.00,100.08
1678.00,100.08
1677.00,100.08
1676.00,100.08
1675.00,100.08
1674.00,100.08
1673.00,100.08
1672.00,100.07
1671.00,100.06
1670.00,100.06
1669.00,100.05
1668.00,100.04
1667.00,100.04
1666.00,100.04
1665.00,100.04
1664.00,100.04
1663.00,100.04
1662.00,100.05
1661.00,100.04
1660.00,100.04
1659.00,100.03
1658.00,100.03
1657.00,100.03
1656.00,100.03
1655.00,100.03
1654.00,100.03
1653.00,100.03
1652.00,100.03
1651.00,100.04
1650.00,100.04
1649.00,100.03
1648.00,100.03
1647.00,100.03
1646.00,100.04
1645.00,100.04
1644.00,100.04
1643.00,100.05
1642.00,100.05
1641.00,100.05
1640.00,100.05
1639.00,100.05
1638.00,100.06
1637.00,100.06
1636.00,100.06
1635.00,100.06
1634.00,100.06
1633.00,100.07
1632.00,100.06
1631.00,100.06
1630.00,100.06
1629.00,100.07
1628.00,100.07
1627.00,100.08
1626.00,100.08
1625.00,100.08
1624.00,100.08
1623.00,100.08
1622.00,100.09
1621.00,100.08
1620.00,100.08
1619.00,100.08
1618.00,100.08
1617.00,100.08
1616.00,100.09
1615.00,100.09
1614.00,100.09
1613.00,100.09
1612.00,100.09
1611.00,100.10
1610.00,100.10
1609.00,100.10
1608.00,100.10
1607.00,100.10
1606.00,100.10
1605.00,100.10
1604.00,100.10
1603.00,100.11
1602.00,100.11
1601.00,100.11
1600.00,100.11
1599.00,100.11
1598.00,100.11
1597.00,100.11
1596.00,100.11
1595.00,100.11
1594.00,100.11
1593.00,100.11
1592.00,100.11
1591.00,100.12
1590.00,100.12
1589.00,100.12
1588.00,100.12
1587.00,100.12
1586.00,100.13
1585.00,100.13
1584.00,100.13
1583.00,100.13
1582.00,100.13
1581.00,100.13
1580.00,100.13
1579.00,100.13
1578.00,100.13
1577.00,100.13
1576.00,100.13
1575.00,100.13
1574.00,100.14
1573.00,100.14
1572.00,100.13
1571.00,100.13
1570.00,100.13
1569.00,100.13
1568.00,100.13
1567.00,100.13
1566.00,100.13
1565.00,100.13
1564.00,100.14
1563.00,100.14
1562.00,100.14
1561.00,100.14
1560.00,100.14
1559.00,100.15
1558.00,100.13
1557.00,100.13
1556.00,100.13
1555.00,100.13
1554.00,100.13
1553.00,100.13
1552.00,100.13
1551.00,100.13
1550.00,100.13
1549.00,100.12
1548.00,100.13
1547.00,100.13
1546.00,100.13
1545.00,100.14
1544.00,100.14
1543.00,100.14
1542.00,100.14
1541.00,100.14
1540.00,100.12
1539.00,100.11
1538.00,100.11
1537.00,100.12
1536.00,100.12
1535.00,100.11
1534.00,100.11
1533.00,100.11
1532.00,100.11
1531.00,100.11
1530.00,100.10
1529.00,100.11
1528.00,100.11
1527.00,100.11
1526.00,100.11
1525.00,100.11
1524.00,100.11
1523.00,100.10
1522.00,100.10
1521.00,100.09
1520.00,100.09
1519.00,100.09
1518.00,100.08
1517.00,100.08
1516.00,100.08
1515.00,100.08
1514.00,100.08
1513.00,100.08
1512.00,100.08
1511.00,100.08
1510.00,100.08
1509.00,100.08
1508.00,100.08
1507.00,100.07
1506.00,100.06
1505.00,100.07
1504.00,100.08
1503.00,100.08
1502.00,100.08
1501.00,100.08
1500.00,100.08
1499.00,100.08
1498.00,100.08
1497.00,100.07
1496.00,100.07
1495.00,100.06
1494.00,100.06
1493.00,100.05
1492.00,100.05
1491.00,100.04
1490.00,100.04
1489.00,100.03
1488.00,100.01
1487.00,100.01
1486.00,100.01
1485.00,100.01
1484.00,100.00
1483.00,100.00
1482.00,99.99
1481.00,99.99
1480.00,99.98
1479.00,99.97
1478.00,99.97
1477.00,99.96
1476.00,99.95
1475.00,99.94
1474.00,99.94
1473.00,99.93
1472.00,99.92
1471.00,99.92
1470.00,99.91
1469.00,99.91
1468.00,99.90
1467.00,99.90
1466.00,99.89
1465.00,99.89
1464.00,99.88
1463.00,99.88
1462.00,99.87
1461.00,99.86
1460.00,99.85
1459.00,99.85
1458.00,99.85
1457.00,99.85
1456.00,99.85
1455.00,99.85
1454.00,99.85
1453.00,99.85
1452.00,99.85
1451.00,99.84
1450.00,99.84
1449.00,99.84
1448.00,99.84
1447.00,99.84
1446.00,99.84
1445.00,99.84
1444.00,99.84
1443.00,99.83
1442.00,99.83
1441.00,99.83
1440.00,99.83
1439.00,99.82
1438.00,99.82
1437.00,99.82
1436.00,99.82
1435.00,99.82
1434.00,99.81
1433.00,99.81
1432.00,99.80
1431.00,99.80
1430.00,99.80
1429.00,99.79
1428.00,99.79
1427.00,99.79
1426.00,99.79
1425.00,99.78
1424.00,99.78
1423.00,99.78
1422.00,99.78
1421.00,99.77
1420.00,99.77
1419.00,99.77
1418.00,99.78
1417.00,99.78
1416.00,99.78
1415.00,99.77
1414.00,99.77
1413.00,99.77
1412.00,99.78
1411.00,99.78
1410.00,99.78
1409.00,99.77
1408.00,99.77
1407.00,99.77
1406.00,99.77
1405.00,99.77
1404.00,99.77
1403.00,99.78
1402.00,99.78
1401.00,99.78
1400.00,99.78
1399.00,99.79
1398.00,99.79
1397.00,99.79
1396.00,99.80
1395.00,99.80
1394.00,99.81
1393.00,99.81
1392.00,99.82
1391.00,99.82
1390.00,99.82
1389.00,99.82
1388.00,99.83
1387.00,99.83
1386.00,99.84
1385.00,99.84
1384.00,99.84
1383.00,99.84
1382.00,99.84
1381.00,99.84
1380.00,99.84
1379.00,99.84
1378.00,99.84
1377.00,99.84
1376.00,99.84
1375.00,99.84
1374.00,99.84
1373.00,99.84
1372.00,99.84
1371.00,99.84
1370.00,99.84
1369.00,99.85
1368.00,99.85
1367.00,99.85
1366.00,99.84
1365.00,99.84
1364.00,99.84
1363.00,99.85
1362.00,99.85
1361.00,99.85
1360.00,99.85
1359.00,99.85
1358.00,99.85
1357.00,99.85
1356.00,99.85
1355.00,99.85
1354.00,99.85
1353.00,99.85
1352.00,99.85
1351.00,99.85
1350.00,99.85
1349.00,99.85
1348.00,99.85
1347.00,99.85
1346.00,99.85
1345.00,99.85
1344.00,99.85
1343.00,99.84
1342.00,99.84
1341.00,99.84
1340.00,99.84
1339.00,99.83
1338.00,99.83
1337.00,99.83
1336.00,99.83
1335.00,99.84
1334.00,99.84
1333.00,99.84
1332.00,99.84
1331.00,99.84
1330.00,99.84
1329.00,99.84
1328.00,99.84
1327.00,99.84
1326.00,99.84
1325.00,99.84
1324.00,99.84
1323.00,99.84
1322.00,99.84
1321.00,99.84
1320.00,99.84
1319.00,99.85
1318.00,99.85
1317.00,99.85
1316.00,99.86
1315.00,99.86
1314.00,99.86
1313.00,99.87
1312.00,99.87
1311.00,99.87
1310.00,99.87
1309.00,99.88
1308.00,99.88
1307.00,99.88
1306.00,99.88
1305.00,99.89
1304.00,99.89
1303.00,99.89
1302.00,99.89
1301.00,99.90
1300.00,99.90
1299.00,99.90
1298.00,99.90
1297.00,99.90
1296.00,99.90
1295.00,99.90
1294.00,99.90
1293.00,99.90
1292.00,99.90
1291.00,99.90
1290.00,99.90
1289.00,99.90
1288.00,99.90
1287.00,99.91
1286.00,99.91
1285.00,99.91
1284.00,99.91
1283.00,99.91
1282.00,99.90
1281.00,99.91
1280.00,99.91
1279.00,99.91
1278.00,99.91
1277.00,99.91
1276.00,99.92
1275.00,99.92
1274.00,99.92
1273.00,99.92
1272.00,99.92
1271.00,99.92
1270.00,99.92
1269.00,99.92
1268.00,99.92
1267.00,99.92
1266.00,99.92
1265.00,99.92
1264.00,99.92
1263.00,99.92
1262.00,99.92
1261.00,99.92
1260.00,99.92
1259.00,99.92
1258.00,99.92
1257.00,99.92
1256.00,99.91
1255.00,99.91
1254.00,99.91
1253.00,99.91
1252.00,99.90
1251.00,99.90
1250.00,99.90
1249.00,99.90
1248.00,99.89
1247.00,99.89
1246.00,99.89
1245.00,99.89
1244.00,99.88
1243.00,99.88
1242.00,99.88
1241.00,99.88
1240.00,99.87
1239.00,99.87
1238.00,99.87
1237.00,99.87
1236.00,99.87
1235.00,99.87
1234.00,99.86
1233.00,99.86
1232.00,99.86
1231.00,99.86
1230.00,99.86
1229.00,99.86
1228.00,99.85
1227.00,99.85
1226.00,99.85
1225.00,99.84
1224.00,99.84
1223.00,99.84
1222.00,99.84
1221.00,99.84
1220.00,99.84
1219.00,99.84
1218.00,99.84
1217.00,99.84
1216.00,99.83
1215.00,99.83
1214.00,99.83
1213.00,99.83
1212.00,99.83
1211.00,99.82
1210.00,99.82
1209.00,99.82
1208.00,99.82
1207.00,99.82
1206.00,99.82
1205.00,99.82
1204.00,99.82
1203.00,99.82
1202.00,99.82
1201.00,99.82
1200.00,99.82
1199.00,99.83
1198.00,99.83
1197.00,99.83
1196.00,99.84
1195.00,99.84
1194.00,99.84
1193.00,99.85
1192.00,99.85
1191.00,99.85
1190.00,99.86
1189.00,99.87
1188.00,99.87
1187.00,99.88
1186.00,99.88
1185.00,99.89
1184.00,99.89
1183.00,99.90
1182.00,99.90
1181.00,99.90
1180.00,99.91
1179.00,99.91
1178.00,99.91
1177.00,99.91
1176.00,99.92
1175.00,99.92
1174.00,99.92
1173.00,99.92
1172.00,99.93
1171.00,99.93
1170.00,99.93
1169.00,99.93
1168.00,99.93
1167.00,99.93
1166.00,99.93
1165.00,99.93
1164.00,99.93
1163.00,99.94
1162.00,99.94
1161.00,99.94
1160.00,99.94
1159.00,99.94
1158.00,99.94
1157.00,99.94
1156.00,99.94
1155.00,99.94
1154.00,99.93
1153.00,99.93
1152.00,99.93
1151.00,99.94
1150.00,99.94
1149.00,99.93
1148.00,99.93
1147.00,99.93
1146.00,99.93
1145.00,99.93
1144.00,99.92
1143.00,99.92
1142.00,99.92
1141.00,99.91
1140.00,99.91
1139.00,99.90
1138.00,99.90
1137.00,99.89
1136.00,99.88
1135.00,99.88
1134.00,99.87
1133.00,99.85
1132.00,99.84
1131.00,99.83
1130.00,99.81
1129.00,99.79
1128.00,99.77
1127.00,99.74
1126.00,99.72
1125.00,99.70
1124.00,99.67
1123.00,99.64
1122.00,99.61
1121.00,99.58
1120.00,99.55
1119.00,99.53
1118.00,99.50
1117.00,99.47
1116.00,99.45
1115.00,99.43
1114.00,99.42
1113.00,99.41
1112.00,99.40
1111.00,99.40
1110.00,99.40
1109.00,99.40
1108.00,99.40
1107.00,99.41
1106.00,99.41
1105.00,99.43
1104.00,99.44
1103.00,99.45
1102.00,99.46
1101.00,99.47
1100.00,99.48
1099.00,99.49
1098.00,99.50
1097.00,99.51
1096.00,99.52
1095.00,99.52
1094.00,99.53
1093.00,99.54
1092.00,99.55
1091.00,99.55
1090.00,99.55
1089.00,99.55
1088.00,99.56
1087.00,99.56
1086.00,99.56
1085.00,99.56
1084.00,99.56
1083.00,99.56
1082.00,99.56
1081.00,99.55
1080.00,99.55
1079.00,99.54
1078.00,99.54
1077.00,99.53
1076.00,99.52
1075.00,99.51
1074.00,99.50
1073.00,99.49
1072.00,99.48
1071.00,99.46
1070.00,99.45
1069.00,99.43
1068.00,99.42
1067.00,99.40
1066.00,99.37
1065.00,99.35
1064.00,99.32
1063.00,99.30
1062.00,99.28
1061.00,99.25
1060.00,99.23
1059.00,99.20
1058.00,99.17
1057.00,99.14
1056.00,99.11
1055.00,99.08
1054.00,99.05
1053.00,99.01
1052.00,98.98
1051.00,98.96
1050.00,98.93
1049.00,98.91
1048.00,98.88
1047.00,98.86
1046.00,98.84
1045.00,98.82
1044.00,98.80
1043.00,98.79
1042.00,98.78
1041.00,98.77
1040.00,98.76
1039.00,98.76
1038.00,98.75
1037.00,98.76
1036.00,98.76
1035.00,98.77
1034.00,98.79
1033.00,98.80
1032.00,98.82
1031.00,98.84
1030.00,98.87
1029.00,98.90
1028.00,98.93
1027.00,98.97
1026.00,99.00
1025.00,99.04
1024.00,99.08
1023.00,99.12
1022.00,99.16
1021.00,99.21
1020.00,99.25
1019.00,99.30
1018.00,99.34
1017.00,99.37
1016.00,99.41
1015.00,99.44
1014.00,99.47
1013.00,99.50
1012.00,99.53
1011.00,99.55
1010.00,99.56
1009.00,99.57
1008.00,99.58
1007.00,99.58
1006.00,99.57
1005.00,99.57
1004.00,99.56
1003.00,99.55
1002.00,99.54
1001.00,99.52
1000.00,99.51
999.00,99.50
998.00,99.49
997.00,99.48
996.00,99.48
995.00,99.47
994.00,99.47
993.00,99.47
992.00,99.48
991.00,99.49
990.00,99.49
989.00,99.51
988.00,99.52
987.00,99.53
986.00,99.55
985.00,99.56
984.00,99.57
983.00,99.58
982.00,99.59
981.00,99.60
980.00,99.61
979.00,99.61
978.00,99.62
977.00,99.62
976.00,99.63
975.00,99.63
974.00,99.64
973.00,99.65
972.00,99.66
971.00,99.68
970.00,99.69
969.00,99.71
968.00,99.72
967.00,99.74
966.00,99.75
965.00,99.77
964.00,99.78
963.00,99.80
962.00,99.81
961.00,99.82
960.00,99.83
959.00,99.84
958.00,99.85
957.00,99.85
956.00,99.86
955.00,99.86
954.00,99.86
953.00,99.87
952.00,99.87
951.00,99.87
950.00,99.87
949.00,99.87
948.00,99.87
947.00,99.87
946.00,99.87
945.00,99.86
944.00,99.86
943.00,99.85
942.00,99.85
941.00,99.84
940.00,99.84
939.00,99.83
938.00,99.82
937.00,99.81
936.00,99.80
935.00,99.78
934.00,99.76
933.00,99.74
932.00,99.72
931.00,99.71
930.00,99.69
929.00,99.68
928.00,99.67
927.00,99.66
926.00,99.65
925.00,99.65
924.00,99.65
923.00,99.65
922.00,99.65
921.00,99.65
920.00,99.65
919.00,99.66
918.00,99.66
917.00,99.67
916.00,99.67
915.00,99.68
914.00,99.69
913.00,99.69
912.00,99.70
911.00,99.71
910.00,99.72
909.00,99.73
908.00,99.74
907.00,99.75
906.00,99.76
905.00,99.77
904.00,99.78
903.00,99.79
902.00,99.80
901.00,99.81
900.00,99.82
899.00,99.82
898.00,99.83
897.00,99.84
896.00,99.84
895.00,99.85
894.00,99.85
893.00,99.85
892.00,99.85
891.00,99.86
890.00,99.86
889.00,99.86
888.00,99.86
887.00,99.86
886.00,99.86
885.00,99.85
884.00,99.85
883.00,99.85
882.00,99.84
881.00,99.84
880.00,99.83
879.00,99.82
878.00,99.80
877.00,99.79
876.00,99.78
875.00,99.77
874.00,99.76
873.00,99.76
872.00,99.75
871.00,99.73
870.00,99.72
869.00,99.70
868.00,99.70
867.00,99.69
866.00,99.68
865.00,99.68
864.00,99.67
863.00,99.67
862.00,99.67
861.00,99.67
860.00,99.67
859.00,99.67
858.00,99.67
857.00,99.66
856.00,99.65
855.00,99.65
854.00,99.65
853.00,99.64
852.00,99.64
851.00,99.64
850.00,99.64
849.00,99.64
848.00,99.65
847.00,99.66
846.00,99.66
845.00,99.67
844.00,99.68
843.00,99.68
842.00,99.68
841.00,99.69
840.00,99.70
839.00,99.71
838.00,99.71
837.00,99.72
836.00,99.73
835.00,99.73
834.00,99.74
833.00,99.74
832.00,99.74
831.00,99.75
830.00,99.75
829.00,99.75
828.00,99.75
827.00,99.74
826.00,99.73
825.00,99.72
824.00,99.72
823.00,99.72
822.00,99.72
821.00,99.72
820.00,99.72
819.00,99.71
818.00,99.71
817.00,99.71
816.00,99.71
815.00,99.71
814.00,99.72
813.00,99.72
812.00,99.72
811.00,99.72
810.00,99.73
809.00,99.73
808.00,99.73
807.00,99.72
806.00,99.72
805.00,99.72
804.00,99.72
803.00,99.72
802.00,99.72
801.00,99.71
800.00,99.71
799.00,99.71
798.00,99.71
797.00,99.70
796.00,99.70
795.00,99.69
794.00,99.69
793.00,99.68
792.00,99.69
791.00,99.69
790.00,99.69
789.00,99.69
788.00,99.69
787.00,99.68
786.00,99.68
785.00,99.68
784.00,99.68
783.00,99.68
782.00,99.68
781.00,99.67
780.00,99.67
779.00,99.66
778.00,99.66
777.00,99.65
776.00,99.65
775.00,99.65
774.00,99.65
773.00,99.66
772.00,99.66
771.00,99.66
770.00,99.66
769.00,99.66
768.00,99.65
767.00,99.65
766.00,99.64
765.00,99.64
764.00,99.63
763.00,99.63
762.00,99.62
761.00,99.62
760.00,99.62
759.00,99.62
758.00,99.61
757.00,99.61
756.00,99.61
755.00,99.60
754.00,99.60
753.00,99.60
752.00,99.60
751.00,99.60
750.00,99.61
749.00,99.61
748.00,99.60
747.00,99.60
746.00,99.59
745.00,99.59
744.00,99.59
743.00,99.58
742.00,99.58
741.00,99.58
740.00,99.58
739.00,99.59
738.00,99.58
737.00,99.58
736.00,99.57
735.00,99.57
734.00,99.57
733.00,99.58
732.00,99.58
731.00,99.57
730.00,99.56
729.00,99.55
728.00,99.55
727.00,99.55
726.00,99.55
725.00,99.56
724.00,99.57
723.00,99.57
722.00,99.57
721.00,99.56
720.00,99.55
719.00,99.54
718.00,99.53
717.00,99.54
716.00,99.54
715.00,99.54
714.00,99.53
713.00,99.53
712.00,99.53
711.00,99.53
710.00,99.52
709.00,99.52
708.00,99.51
707.00,99.51
706.00,99.50
705.00,99.50
704.00,99.49
703.00,99.49
702.00,99.49
701.00,99.49
700.00,99.49
699.00,99.48
698.00,99.48
697.00,99.48
696.00,99.47
695.00,99.47
694.00,99.46
693.00,99.46
692.00,99.45
691.00,99.45
690.00,99.45
689.00,99.45
688.00,99.45
687.00,99.46
686.00,99.45
685.00,99.45
684.00,99.44
683.00,99.43
682.00,99.42
681.00,99.42
680.00,99.42
679.00,99.41
678.00,99.40
677.00,99.39
676.00,99.39
675.00,99.35
674.00,99.35
673.00,99.35
672.00,99.35
671.00,99.35
670.00,99.35
669.00,99.35
668.00,99.37
667.00,99.38
666.00,99.39
665.00,99.38
664.00,99.38
663.00,99.39
662.00,99.38
661.00,99.38
660.00,99.38
659.00,99.39
658.00,99.39
657.00,99.40
656.00,99.41
655.00,99.42
654.00,99.44
653.00,99.44
652.00,99.45
651.00,99.44
650.00,99.44
649.00,99.43
648.00,99.43
647.00,99.43
646.00,99.42
645.00,99.42
644.00,99.42
643.00,99.42
642.00,99.42
641.00,99.41
640.00,99.42
639.00,99.44
638.00,99.47
637.00,99.49
636.00,99.50
635.00,99.51
634.00,99.52
633.00,99.51
632.00,99.50
631.00,99.48
630.00,99.48
629.00,99.49
628.00,99.51
627.00,99.52
626.00,99.50
625.00,99.45
624.00,99.40
623.00,99.37
622.00,99.37
621.00,99.41
620.00,99.48
619.00,99.53
618.00,99.55
617.00,99.54
616.00,99.52
615.00,99.51
614.00,99.51
613.00,99.53
612.00,99.56
611.00,99.59
610.00,99.61
609.00,99.63
608.00,99.65
607.00,99.66
606.00,99.66
605.00,99.66
604.00,99.64
603.00,99.62
602.00,99.56
601.00,99.51
600.00,99.49
599.00,99.53
598.00,99.59
597.00,99.62
596.00,99.61
595.00,99.60
594.00,99.60
593.00,99.60
592.00,99.59
591.00,99.60
590.00,99.63
589.00,99.68
588.00,99.71
587.00,99.73
586.00,99.71
585.00,99.68
584.00,99.66
583.00,99.64
582.00,99.65
581.00,99.64
580.00,99.62
579.00,99.58
578.00,99.56
577.00,99.56
576.00,99.59
575.00,99.64
574.00,99.66
573.00,99.66
572.00,99.64
571.00,99.66
570.00,99.71
569.00,99.74
568.00,99.72
567.00,99.64
566.00,99.57
565.00,99.57
564.00,99.64
563.00,99.74
562.00,99.78
561.00,99.76
560.00,99.70
559.00,99.68
558.00,99.71
557.00,99.75
556.00,99.73
555.00,99.64
554.00,99.57
553.00,99.57
552.00,99.63
551.00,99.70
550.00,99.77
549.00,99.82
548.00,99.87
547.00,99.86
546.00,99.79
545.00,99.69
544.00,99.59
543.00,99.52
542.00,99.47
541.00,99.43
540.00,99.37
539.00,99.37
538.00,99.45
537.00,99.58
536.00,99.63
535.00,99.54
534.00,99.38
533.00,99.26
532.00,99.24
531.00,99.36
530.00,99.69
529.00,100.27
528.00,101.00
527.00,101.61
526.00,101.69
525.00,101.41
524.00,101.10
523.00,100.71
522.00,100.25
521.00,99.89
520.00,99.68
519.00,99.65
518.00,100.01
517.00,100.92
516.00,102.32
515.00,103.18
514.00,102.38
513.00,100.99
512.00,100.50
511.00,100.03
510.00,103.07
509.00,104.23
508.00,116.50
507.00,121.54
506.00,111.09
505.00,90.41
504.00,104.06
503.00,395.36
502.00,106.92
501.00,69.10
500.00,115.15
499.00,169.34
498.00,102.56
497.00,97.65
496.00,110.19
495.00,134.58
494.00,70.45
493.00,72.33
492.00,148.79
491.00,115.70
490.00,91.76
489.00,101.82
488.00,70.65
487.00,96.91
486.00,98.14
485.00,94.37
484.00,225.70
483.00,126.72
482.00,136.11
481.00,127.00
480.00,133.46
479.00,70.29
478.00,100.87
477.00,153.38
476.00,98.33
475.00,86.20
474.00,97.36
473.00,78.41
472.00,108.97
471.00,129.69
470.00,82.85
469.00,55.84
468.00,114.77
467.00,114.73
466.00,96.76
465.00,98.07
464.00,75.27
463.00,109.92
462.00,56.46
461.00,82.80
460.00,99.66
459.00,82.61
458.00,92.94
457.00,151.26
456.00,128.48
455.00,73.47
454.00,106.02
453.00,130.42
452.00,118.90
451.00,68.47
450.00,98.27
449.00,233.93
448.00,101.95
447.00,76.37
446.00,111.69
445.00,143.28
444.00,84.70
443.00,42.59
442.00,133.97
441.00,161.47
440.00,47.71
439.00,71.33
438.00,110.91
437.00,109.40
436.00,153.32
435.00,101.61
434.00,315.12
433.00,111.42
432.00,74.28
431.00,95.04
430.00,77.30
429.00,119.56
428.00,118.90
427.00,78.41
426.00,95.14
425.00,110.62
424.00,104.48
423.00,77.46
422.00,102.83
421.00,164.82
420.00,116.58
419.00,90.65
418.00,96.01
417.00,82.84
416.00,97.04
415.00,90.05
414.00,99.29
413.00,106.56
412.00,81.75
411.00,117.17
410.00,45.55
409.00,77.43
408.00,359.80
407.00,140.88
406.00,92.08
405.00,66.82
404.00,120.25
403.00,128.82
402.00,155.14
401.00,118.34
400.00,109.68
