Created as New Dataset,Sample 004 By FTIR User 2.0 Date Friday, April 12 2024
cm-1,%T
4000.00,100.74
3999.00,100.75
3998.00,100.74
3997.00,100.74
3996.00,100.74
3995.00,100.74
3994.00,100.74
3993.00,100.74
3992.00,100.74
3991.00,100.74
3990.00,100.74
3989.00,100.74
3988.00,100.74
3987.00,100.75
3986.00,100.75
3985.00,100.75
3984.00,100.75
3983.00,100.75
3982.00,100.75
3981.00,100.75
3980.00,100.75
3979.00,100.75
3978.00,100.75
3977.00,100.75
3976.00,100.74
3975.00,100.74
3974.00,100.74
3973.00,100.75
3972.00,100.75
3971.00,100.76
3970.00,100.76
3969.00,100.76
3968.00,100.76
3967.00,100.75
3966.00,100.75
3965.00,100.75
3964.00,100.75
3963.00,100.74
3962.00,100.74
3961.00,100.74
3960.00,100.73
3959.00,100.74
3958.00,100.74
3957.00,100.74
3956.00,100.74
3955.00,100.74
3954.00,100.74
3953.00,100.74
3952.00,100.74
3951.00,100.74
3950.00,100.74
3949.00,100.74
3948.00,100.74
3947.00,100.74
3946.00,100.73
3945.00,100.74
3944.00,100.74
3943.00,100.74
3942.00,100.74
3941.00,100.74
3940.00,100.75
3939.00,100.75
3938.00,100.75
3937.00,100.74
3936.00,100.74
3935.00,100.74
3934.00,100.74
3933.00,100.74
3932.00,100.74
3931.00,100.73
3930.00,100.73
3929.00,100.73
3928.00,100.73
3927.00,100.74
3926.00,100.73
3925.00,100.73
3924.00,100.73
3923.00,100.73
3922.00,100.73
3921.00,100.73
3920.00,100.73
3919.00,100.73
3918.00,100.72
3917.00,100.73
3916.00,100.73
3915.00,100.73
3914.00,100.74
3913.00,100.74
3912.00,100.73
3911.00,100.72
3910.00,100.72
3909.00,100.72
3908.00,100.72
3907.00,100.72
3906.00,100.72
3905.00,100.72
3904.00,100.72
3903.00,100.71
3902.00,100.72
3901.00,100.72
3900.00,100.73
3899.00,100.73
3898.00,100.72
3897.00,100.72
3896.00,100.72
3895.00,100.72
3894.00,100.72
3893.00,100.73
3892.00,100.73
3891.00,100.73
3890.00,100.72
3889.00,100.72
3888.00,100.72
3887.00,100.72
3886.00,100.71
3885.00,100.70
3884.00,100.69
3883.00,100.71
3882.00,100.73
3881.00,100.74
3880.00,100.73
3879.00,100.72
3878.00,100.72
3877.00,100.72
3876.00,100.72
3875.00,100.71
3874.00,100.70
3873.00,100.69
3872.00,100.70
3871.00,100.72
3870.00,100.71
3869.00,100.70
3868.00,100.69
3867.00,100.70
3866.00,100.71
3865.00,100.71
3864.00,100.71
3863.00,100.71
3862.00,100.72
3861.00,100.72
3860.00,100.71
3859.00,100.70
3858.00,100.67
3857.00,100.66
3856.00,100.65
3855.00,100.66
3854.00,100.67
3853.00,100.66
3852.00,100.67
3851.00,100.68
3850.00,100.70
3849.00,100.71
3848.00,100.71
3847.00,100.70
3846.00,100.70
3845.00,100.70
3844.00,100.70
3843.00,100.70
3842.00,100.70
3841.00,100.70
3840.00,100.70
3839.00,100.70
3838.00,100.70
3837.00,100.69
3836.00,100.69
3835.00,100.70
3834.00,100.70
3833.00,100.70
3832.00,100.70
3831.00,100.69
3830.00,100.69
3829.00,100.70
3828.00,100.70
3827.00,100.70
3826.00,100.69
3825.00,100.69
3824.00,100.69
3823.00,100.71
3822.00,100.71
3821.00,100.70
3820.00,100.68
3819.00,100.69
3818.00,100.70
3817.00,100.71
3816.00,100.69
3815.00,100.68
3814.00,100.68
3813.00,100.70
3812.00,100.70
3811.00,100.70
3810.00,100.70
3809.00,100.70
3808.00,100.70
3807.00,100.70
3806.00,100.68
3805.00,100.68
3804.00,100.69
3803.00,100.71
3802.00,100.70
3801.00,100.69
3800.00,100.69
3799.00,100.70
3798.00,100.70
3797.00,100.70
3796.00,100.69
3795.00,100.69
3794.00,100.69
3793.00,100.70
3792.00,100.70
3791.00,100.70
3790.00,100.70
3789.00,100.70
3788.00,100.70
3787.00,100.70
3786.00,100.71
3785.00,100.71
3784.00,100.71
3783.00,100.71
3782.00,100.72
3781.00,100.72
3780.00,100.72
3779.00,100.71
3778.00,100.70
3777.00,100.70
3776.00,100.70
3775.00,100.69
3774.00,100.69
3773.00,100.69
3772.00,100.69
3771.00,100.70
3770.00,100.70
3769.00,100.70
3768.00,100.70
3767.00,100.71
3766.00,100.71
3765.00,100.70
3764.00,100.69
3763.00,100.69
3762.00,100.69
3761.00,100.70
3760.00,100.70
3759.00,100.70
3758.00,100.69
3757.00,100.69
3756.00,100.68
3755.00,100.66
3754.00,100.65
3753.00,100.64
3752.00,100.62
3751.00,100.61
3750.00,100.60
3749.00,100.59
3748.00,100.58
3747.00,100.59
3746.00,100.60
3745.00,100.61
3744.00,100.60
3743.00,100.60
3742.00,100.62
3741.00,100.64
3740.00,100.65
3739.00,100.64
3738.00,100.64
3737.00,100.64
3736.00,100.63
3735.00,100.63
3734.00,100.63
3733.00,100.63
3732.00,100.62
3731.00,100.60
3730.00,100.59
3729.00,100.58
3728.00,100.58
3727.00,100.58
3726.00,100.57
3725.00,100.59
3724.00,100.61
3723.00,100.63
3722.00,100.64
3721.00,100.65
3720.00,100.66
3719.00,100.66
3718.00,100.66
3717.00,100.65
3716.00,100.64
3715.00,100.64
3714.00,100.63
3713.00,100.62
3712.00,100.60
3711.00,100.59
3710.00,100.59
3709.00,100.60
3708.00,100.61
3707.00,100.63
3706.00,100.63
3705.00,100.64
3704.00,100.66
3703.00,100.67
3702.00,100.68
3701.00,100.68
3700.00,100.67
3699.00,100.67
3698.00,100.66
3697.00,100.66
3696.00,100.66
3695.00,100.65
3694.00,100.64
3693.00,100.64
3692.00,100.64
3691.00,100.65
3690.00,100.68
3689.00,100.69
3688.00,100.69
3687.00,100.68
3686.00,100.67
3685.00,100.67
3684.00,100.67
3683.00,100.66
3682.00,100.65
3681.00,100.65
3680.00,100.64
3679.00,100.63
3678.00,100.64
3677.00,100.65
3676.00,100.66
3675.00,100.65
3674.00,100.64
3673.00,100.64
3672.00,100.65
3671.00,100.65
3670.00,100.64
3669.00,100.63
3668.00,100.64
3667.00,100.65
3666.00,100.66
3665.00,100.66
3664.00,100.66
3663.00,100.66
3662.00,100.66
3661.00,100.66
3660.00,100.66
3659.00,100.66
3658.00,100.67
3657.00,100.66
3656.00,100.66
3655.00,100.65
3654.00,100.65
3653.00,100.65
3652.00,100.66
3651.00,100.66
3650.00,100.65
3649.00,100.65
3648.00,100.66
3647.00,100.66
3646.00,100.66
3645.00,100.65
3644.00,100.65
3643.00,100.65
3642.00,100.64
3641.00,100.64
3640.00,100.65
3639.00,100.65
3638.00,100.64
3637.00,100.64
3636.00,100.63
3635.00,100.63
3634.00,100.62
3633.00,100.61
3632.00,100.61
3631.00,100.62
3630.00,100.62
3629.00,100.61
3628.00,100.61
3627.00,100.62
3626.00,100.63
3625.00,100.65
3624.00,100.66
3623.00,100.66
3622.00,100.68
3621.00,100.69
3620.00,100.70
3619.00,100.70
3618.00,100.69
3617.00,100.68
3616.00,100.67
3615.00,100.67
3614.00,100.66
3613.00,100.65
3612.00,100.64
3611.00,100.63
3610.00,100.63
3609.00,100.63
3608.00,100.63
3607.00,100.63
3606.00,100.65
3605.00,100.66
3604.00,100.66
3603.00,100.67
3602.00,100.66
3601.00,100.66
3600.00,100.66
3599.00,100.67
3598.00,100.67
3597.00,100.67
3596.00,100.65
3595.00,100.64
3594.00,100.64
3593.00,100.64
3592.00,100.65
3591.00,100.66
3590.00,100.67
3589.00,100.68
3588.00,100.68
3587.00,100.68
3586.00,100.67
3585.00,100.67
3584.00,100.68
3583.00,100.68
3582.00,100.68
3581.00,100.68
3580.00,100.67
3579.00,100.67
3578.00,100.67
3577.00,100.67
3576.00,100.67
3575.00,100.68
3574.00,100.68
3573.00,100.68
3572.00,100.68
3571.00,100.69
3570.00,100.69
3569.00,100.70
3568.00,100.70
3567.00,100.70
3566.00,100.70
3565.00,100.69
3564.00,100.69
3563.00,100.69
3562.00,100.69
3561.00,100.69
3560.00,100.68
3559.00,100.68
3558.00,100.68
3557.00,100.68
3556.00,100.68
3555.00,100.68
3554.00,100.68
3553.00,100.69
3552.00,100.69
3551.00,100.69
3550.00,100.69
3549.00,100.69
3548.00,100.69
3547.00,100.69
3546.00,100.69
3545.00,100.69
3544.00,100.70
3543.00,100.70
3542.00,100.69
3541.00,100.69
3540.00,100.68
3539.00,100.68
3538.00,100.68
3537.00,100.68
3536.00,100.68
3535.00,100.68
3534.00,100.68
3533.00,100.68
3532.00,100.68
3531.00,100.68
3530.00,100.68
3529.00,100.68
3528.00,100.68
3527.00,100.68
3526.00,100.68
3525.00,100.68
3524.00,100.68
3523.00,100.69
3522.00,100.69
3521.00,100.68
3520.00,100.68
3519.00,100.68
3518.00,100.67
3517.00,100.67
3516.00,100.67
3515.00,100.68
3514.00,100.68
3513.00,100.68
3512.00,100.69
3511.00,100.68
3510.00,100.68
3509.00,100.68
3508.00,100.68
3507.00,100.68
3506.00,100.68
3505.00,100.67
3504.00,100.67
3503.00,100.67
3502.00,100.67
3501.00,100.67
3500.00,100.67
3499.00,100.67
3498.00,100.67
3497.00,100.67
3496.00,100.67
3495.00,100.67
3494.00,100.67
3493.00,100.68
3492.00,100.68
3491.00,100.68
3490.00,100.68
3489.00,100.68
3488.00,100.67
3487.00,100.67
3486.00,100.67
3485.00,100.67
3484.00,100.66
3483.00,100.66
3482.00,100.66
3481.00,100.66
3480.00,100.67
3479.00,100.67
3478.00,100.68
3477.00,100.68
3476.00,100.67
3475.00,100.67
3474.00,100.67
3473.00,100.67
3472.00,100.67
3471.00,100.67
3470.00,100.67
3469.00,100.68
3468.00,100.68
3467.00,100.68
3466.00,100.68
3465.00,100.68
3464.00,100.67
3463.00,100.67
3462.00,100.67
3461.00,100.67
3460.00,100.67
3459.00,100.67
3458.00,100.67
3457.00,100.67
3456.00,100.67
3455.00,100.66
3454.00,100.66
3453.00,100.66
3452.00,100.65
3451.00,100.65
3450.00,100.65
3449.00,100.65
3448.00,100.65
3447.00,100.66
3446.00,100.66
3445.00,100.66
3444.00,100.66
3443.00,100.66
3442.00,100.66
3441.00,100.65
3440.00,100.66
3439.00,100.66
3438.00,100.66
3437.00,100.67
3436.00,100.67
3435.00,100.67
3434.00,100.66
3433.00,100.66
3432.00,100.66
3431.00,100.66
3430.00,100.66
3429.00,100.66
3428.00,100.66
3427.00,100.66
3426.00,100.66
3425.00,100.66
3424.00,100.65
3423.00,100.66
3422.00,100.66
3421.00,100.66
3420.00,100.66
3419.00,100.66
3418.00,100.66
3417.00,100.66
3416.00,100.66
3415.00,100.66
3414.00,100.66
3413.00,100.66
3412.00,100.66
3411.00,100.66
3410.00,100.66
3409.00,100.66
3408.00,100.66
3407.00,100.66
3406.00,100.66
3405.00,100.66
3404.00,100.66
3403.00,100.66
3402.00,100.66
3401.00,100.66
3400.00,100.66
3399.00,100.66
3398.00,100.66
3397.00,100.66
3396.00,100.66
3395.00,100.66
3394.00,100.66
3393.00,100.66
3392.00,100.66
3391.00,100.66
3390.00,100.66
3389.00,100.66
3388.00,100.66
3387.00,100.65
3386.00,100.65
3385.00,100.65
3384.00,100.66
3383.00,100.66
3382.00,100.65
3381.00,100.65
3380.00,100.65
3379.00,100.65
3378.00,100.65
3377.00,100.64
3376.00,100.64
3375.00,100.64
3374.00,100.64
3373.00,100.64
3372.00,100.65
3371.00,100.65
3370.00,100.65
3369.00,100.66
3368.00,100.66
3367.00,100.65
3366.00,100.65
3365.00,100.65
3364.00,100.64
3363.00,100.64
3362.00,100.64
3361.00,100.64
3360.00,100.64
3359.00,100.64
3358.00,100.64
3357.00,100.64
3356.00,100.64
3355.00,100.65
3354.00,100.65
3353.00,100.65
3352.00,100.65
3351.00,100.65
3350.00,100.65
3349.00,100.65
3348.00,100.64
3347.00,100.65
3346.00,100.65
3345.00,100.65
3344.00,100.65
3343.00,100.65
3342.00,100.64
3341.00,100.64
3340.00,100.64
3339.00,100.64
3338.00,100.64
3337.00,100.64
3336.00,100.64
3335.00,100.64
3334.00,100.64
3333.00,100.65
3332.00,100.65
3331.00,100.65
3330.00,100.64
3329.00,100.64
3328.00,100.64
3327.00,100.65
3326.00,100.65
3325.00,100.65
3324.00,100.65
3323.00,100.65
3322.00,100.64
3321.00,100.64
3320.00,100.64
3319.00,100.64
3318.00,100.64
3317.00,100.64
3316.00,100.64
3315.00,100.64
3314.00,100.64
3313.00,100.64
3312.00,100.64
3311.00,100.64
3310.00,100.64
3309.00,100.65
3308.00,100.65
3307.00,100.65
3306.00,100.65
3305.00,100.65
3304.00,100.65
3303.00,100.65
3302.00,100.65
3301.00,100.65
3300.00,100.65
3299.00,100.65
3298.00,100.65
3297.00,100.65
3296.00,100.66
3295.00,100.66
3294.00,100.66
3293.00,100.66
3292.00,100.66
3291.00,100.66
3290.00,100.65
3289.00,100.65
3288.00,100.64
3287.00,100.64
3286.00,100.64
3285.00,100.65
3284.00,100.65
3283.00,100.65
3282.00,100.65
3281.00,100.65
3280.00,100.64
3279.00,100.64
3278.00,100.64
3277.00,100.65
3276.00,100.65
3275.00,100.65
3274.00,100.66
3273.00,100.66
3272.00,100.66
3271.00,100.66
3270.00,100.65
3269.00,100.65
3268.00,100.65
3267.00,100.65
3266.00,100.64
3265.00,100.64
3264.00,100.64
3263.00,100.65
3262.00,100.65
3261.00,100.65
3260.00,100.65
3259.00,100.65
3258.00,100.65
3257.00,100.65
3256.00,100.64
3255.00,100.64
3254.00,100.64
3253.00,100.64
3252.00,100.64
3251.00,100.65
3250.00,100.65
3249.00,100.65
3248.00,100.65
3247.00,100.65
3246.00,100.65
3245.00,100.65
3244.00,100.65
3243.00,100.65
3242.00,100.65
3241.00,100.65
3240.00,100.65
3239.00,100.65
3238.00,100.64
3237.00,100.65
3236.00,100.65
3235.00,100.65
3234.00,100.65
3233.00,100.65
3232.00,100.65
3231.00,100.65
3230.00,100.64
3229.00,100.64
3228.00,100.65
3227.00,100.65
3226.00,100.64
3225.00,100.64
3224.00,100.64
3223.00,100.63
3222.00,100.63
3221.00,100.63
3220.00,100.63
3219.00,100.64
3218.00,100.64
3217.00,100.64
3216.00,100.64
3215.00,100.64
3214.00,100.64
3213.00,100.65
3212.00,100.65
3211.00,100.65
3210.00,100.65
3209.00,100.65
3208.00,100.64
3207.00,100.64
3206.00,100.64
3205.00,100.64
3204.00,100.64
3203.00,100.64
3202.00,100.64
3201.00,100.64
3200.00,100.64
3199.00,100.64
3198.00,100.64
3197.00,100.64
3196.00,100.64
3195.00,100.64
3194.00,100.64
3193.00,100.65
3192.00,100.65
3191.00,100.65
3190.00,100.65
3189.00,100.65
3188.00,100.65
3187.00,100.65
3186.00,100.64
3185.00,100.64
3184.00,100.63
3183.00,100.63
3182.00,100.63
3181.00,100.63
3180.00,100.63
3179.00,100.63
3178.00,100.63
3177.00,100.63
3176.00,100.63
3175.00,100.64
3174.00,100.64
3173.00,100.64
3172.00,100.65
3171.00,100.65
3170.00,100.64
3169.00,100.64
3168.00,100.64
3167.00,100.64
3166.00,100.64
3165.00,100.64
3164.00,100.64
3163.00,100.64
3162.00,100.64
3161.00,100.64
3160.00,100.64
3159.00,100.64
3158.00,100.64
3157.00,100.64
3156.00,100.64
3155.00,100.64
3154.00,100.64
3153.00,100.64
3152.00,100.64
3151.00,100.65
3150.00,100.64
3149.00,100.64
3148.00,100.64
3147.00,100.64
3146.00,100.64
3145.00,100.64
3144.00,100.64
3143.00,100.64
3142.00,100.64
3141.00,100.64
3140.00,100.65
3139.00,100.65
3138.00,100.65
3137.00,100.64
3136.00,100.64
3135.00,100.64
3134.00,100.65
3133.00,100.65
3132.00,100.65
3131.00,100.65
3130.00,100.65
3129.00,100.65
3128.00,100.64
3127.00,100.64
3126.00,100.64
3125.00,100.64
3124.00,100.63
3123.00,100.63
3122.00,100.63
3121.00,100.64
3120.00,100.65
3119.00,100.65
3118.00,100.66
3117.00,100.66
3116.00,100.66
3115.00,100.66
3114.00,100.65
3113.00,100.65
3112.00,100.65
3111.00,100.64
3110.00,100.64
3109.00,100.64
3108.00,100.64
3107.00,100.64
3106.00,100.63
3105.00,100.63
3104.00,100.63
3103.00,100.63
3102.00,100.64
3101.00,100.64
3100.00,100.63
3099.00,100.63
3098.00,100.63
3097.00,100.63
3096.00,100.63
3095.00,100.63
3094.00,100.63
3093.00,100.63
3092.00,100.64
3091.00,100.64
3090.00,100.64
3089.00,100.64
3088.00,100.64
3087.00,100.64
3086.00,100.64
3085.00,100.64
3084.00,100.64
3083.00,100.64
3082.00,100.64
3081.00,100.65
3080.00,100.65
3079.00,100.65
3078.00,100.65
3077.00,100.65
3076.00,100.64
3075.00,100.64
3074.00,100.64
3073.00,100.64
3072.00,100.64
3071.00,100.64
3070.00,100.64
3069.00,100.64
3068.00,100.64
3067.00,100.64
3066.00,100.64
3065.00,100.64
3064.00,100.64
3063.00,100.64
3062.00,100.64
3061.00,100.64
3060.00,100.63
3059.00,100.63
3058.00,100.63
3057.00,100.63
3056.00,100.63
3055.00,100.63
3054.00,100.63
3053.00,100.64
3052.00,100.64
3051.00,100.64
3050.00,100.64
3049.00,100.64
3048.00,100.64
3047.00,100.64
3046.00,100.64
3045.00,100.64
3044.00,100.64
3043.00,100.64
3042.00,100.64
3041.00,100.63
3040.00,100.63
3039.00,100.63
3038.00,100.63
3037.00,100.63
3036.00,100.64
3035.00,100.64
3034.00,100.64
3033.00,100.64
3032.00,100.63
3031.00,100.63
3030.00,100.63
3029.00,100.63
3028.00,100.63
3027.00,100.63
3026.00,100.63
3025.00,100.63
3024.00,100.63
3023.00,100.63
3022.00,100.62
3021.00,100.62
3020.00,100.63
3019.00,100.63
3018.00,100.63
3017.00,100.63
3016.00,100.62
3015.00,100.62
3014.00,100.62
3013.00,100.62
3012.00,100.62
3011.00,100.61
3010.00,100.61
3009.00,100.60
3008.00,100.59
3007.00,100.58
3006.00,100.58
3005.00,100.57
3004.00,100.57
3003.00,100.56
3002.00,100.56
3001.00,100.55
3000.00,100.54
2999.00,100.53
2998.00,100.52
2997.00,100.52
2996.00,100.52
2995.00,100.52
2994.00,100.51
2993.00,100.51
2992.00,100.51
2991.00,100.51
2990.00,100.51
2989.00,100.50
2988.00,100.49
2987.00,100.49
2986.00,100.48
2985.00,100.47
2984.00,100.45
2983.00,100.43
2982.00,100.42
2981.00,100.41
2980.00,100.41
2979.00,100.42
2978.00,100.42
2977.00,100.43
2976.00,100.44
2975.00,100.44
2974.00,100.45
2973.00,100.45
2972.00,100.45
2971.00,100.45
2970.00,100.45
2969.00,100.45
2968.00,100.46
2967.00,100.47
2966.00,100.48
2965.00,100.49
2964.00,100.50
2963.00,100.51
2962.00,100.51
2961.00,100.51
2960.00,100.51
2959.00,100.52
2958.00,100.52
2957.00,100.52
2956.00,100.52
2955.00,100.53
2954.00,100.53
2953.00,100.53
2952.00,100.53
2951.00,100.54
2950.00,100.54
2949.00,100.55
2948.00,100.55
2947.00,100.55
2946.00,100.56
2945.00,100.56
2944.00,100.56
2943.00,100.57
2942.00,100.57
2941.00,100.57
2940.00,100.57
2939.00,100.58
2938.00,100.58
2937.00,100.58
2936.00,100.59
2935.00,100.59
2934.00,100.60
2933.00,100.60
2932.00,100.61
2931.00,100.61
2930.00,100.62
2929.00,100.63
2928.00,100.63
2927.00,100.63
2926.00,100.64
2925.00,100.64
2924.00,100.64
2923.00,100.65
2922.00,100.65
2921.00,100.65
2920.00,100.65
2919.00,100.65
2918.00,100.65
2917.00,100.64
2916.00,100.64
2915.00,100.63
2914.00,100.62
2913.00,100.62
2912.00,100.61
2911.00,100.61
2910.00,100.60
2909.00,100.59
2908.00,100.58
2907.00,100.58
2906.00,100.58
2905.00,100.57
2904.00,100.57
2903.00,100.57
2902.00,100.57
2901.00,100.57
2900.00,100.57
2899.00,100.57
2898.00,100.57
2897.00,100.57
2896.00,100.56
2895.00,100.56
2894.00,100.56
2893.00,100.55
2892.00,100.55
2891.00,100.54
2890.00,100.54
2889.00,100.54
2888.00,100.53
2887.00,100.53
2886.00,100.53
2885.00,100.53
2884.00,100.54
2883.00,100.54
2882.00,100.54
2881.00,100.54
2880.00,100.54
2879.00,100.54
2878.00,100.55
2877.00,100.55
2876.00,100.55
2875.00,100.56
2874.00,100.56
2873.00,100.56
2872.00,100.56
2871.00,100.56
2870.00,100.56
2869.00,100.56
2868.00,100.56
2867.00,100.57
2866.00,100.57
2865.00,100.58
2864.00,100.58
2863.00,100.58
2862.00,100.58
2861.00,100.58
2860.00,100.59
2859.00,100.60
2858.00,100.60
2857.00,100.60
2856.00,100.61
2855.00,100.61
2854.00,100.62
2853.00,100.62
2852.00,100.62
2851.00,100.63
2850.00,100.62
2849.00,100.62
2848.00,100.62
2847.00,100.61
2846.00,100.60
2845.00,100.60
2844.00,100.59
2843.00,100.59
2842.00,100.58
2841.00,100.58
2840.00,100.58
2839.00,100.58
2838.00,100.59
2837.00,100.58
2836.00,100.58
2835.00,100.58
2834.00,100.58
2833.00,100.58
2832.00,100.58
2831.00,100.58
2830.00,100.58
2829.00,100.58
2828.00,100.58
2827.00,100.58
2826.00,100.58
2825.00,100.58
2824.00,100.58
2823.00,100.58
2822.00,100.58
2821.00,100.58
2820.00,100.58
2819.00,100.58
2818.00,100.58
2817.00,100.58
2816.00,100.58
2815.00,100.58
2814.00,100.58
2813.00,100.58
2812.00,100.58
2811.00,100.58
2810.00,100.58
2809.00,100.58
2808.00,100.58
2807.00,100.58
2806.00,100.57
2805.00,100.57
2804.00,100.57
2803.00,100.57
2802.00,100.57
2801.00,100.57
2800.00,100.57
2799.00,100.58
2798.00,100.58
2797.00,100.58
2796.00,100.58
2795.00,100.58
2794.00,100.57
2793.00,100.57
2792.00,100.57
2791.00,100.57
2790.00,100.57
2789.00,100.57
2788.00,100.57
2787.00,100.57
2786.00,100.57
2785.00,100.57
2784.00,100.57
2783.00,100.57
2782.00,100.57
2781.00,100.57
2780.00,100.57
2779.00,100.57
2778.00,100.57
2777.00,100.57
2776.00,100.57
2775.00,100.57
2774.00,100.57
2773.00,100.57
2772.00,100.57
2771.00,100.57
2770.00,100.57
2769.00,100.57
2768.00,100.57
2767.00,100.57
2766.00,100.57
2765.00,100.56
2764.00,100.56
2763.00,100.56
2762.00,100.56
2761.00,100.56
2760.00,100.56
2759.00,100.56
2758.00,100.56
2757.00,100.56
2756.00,100.56
2755.00,100.56
2754.00,100.56
2753.00,100.56
2752.00,100.56
2751.00,100.56
2750.00,100.56
2749.00,100.56
2748.00,100.56
2747.00,100.56
2746.00,100.56
2745.00,100.56
2744.00,100.56
2743.00,100.56
2742.00,100.56
2741.00,100.56
2740.00,100.56
2739.00,100.56
2738.00,100.56
2737.00,100.56
2736.00,100.56
2735.00,100.56
2734.00,100.56
2733.00,100.56
2732.00,100.56
2731.00,100.56
2730.00,100.56
2729.00,100.56
2728.00,100.56
2727.00,100.56
2726.00,100.56
2725.00,100.56
2724.00,100.56
2723.00,100.56
2722.00,100.56
2721.00,100.56
2720.00,100.55
2719.00,100.55
2718.00,100.55
2717.00,100.55
2716.00,100.55
2715.00,100.55
2714.00,100.56
2713.00,100.56
2712.00,100.56
2711.00,100.55
2710.00,100.55
2709.00,100.55
2708.00,100.55
2707.00,100.55
2706.00,100.55
2705.00,100.55
2704.00,100.55
2703.00,100.55
2702.00,100.55
2701.00,100.55
2700.00,100.55
2699.00,100.56
2698.00,100.55
2697.00,100.55
2696.00,100.55
2695.00,100.55
2694.00,100.54
2693.00,100.54
2692.00,100.55
2691.00,100.55
2690.00,100.55
2689.00,100.55
2688.00,100.55
2687.00,100.55
2686.00,100.55
2685.00,100.55
2684.00,100.55
2683.00,100.55
2682.00,100.55
2681.00,100.55
2680.00,100.55
2679.00,100.55
2678.00,100.54
2677.00,100.54
2676.00,100.54
2675.00,100.54
2674.00,100.54
2673.00,100.55
2672.00,100.55
2671.00,100.55
2670.00,100.55
2669.00,100.55
2668.00,100.54
2667.00,100.54
2666.00,100.54
2665.00,100.54
2664.00,100.54
2663.00,100.53
2662.00,100.53
2661.00,100.53
2660.00,100.53
2659.00,100.53
2658.00,100.53
2657.00,100.53
2656.00,100.53
2655.00,100.53
2654.00,100.53
2653.00,100.53
2652.00,100.53
2651.00,100.53
2650.00,100.52
2649.00,100.52
2648.00,100.52
2647.00,100.52
2646.00,100.52
2645.00,100.52
2644.00,100.52
2643.00,100.52
2642.00,100.52
2641.00,100.52
2640.00,100.52
2639.00,100.52
2638.00,100.52
2637.00,100.52
2636.00,100.52
2635.00,100.52
2634.00,100.52
2633.00,100.52
2632.00,100.52
2631.00,100.52
2630.00,100.52
2629.00,100.52
2628.00,100.53
2627.00,100.53
2626.00,100.52
2625.00,100.52
2624.00,100.52
2623.00,100.52
2622.00,100.52
2621.00,100.52
2620.00,100.52
2619.00,100.52
2618.00,100.52
2617.00,100.52
2616.00,100.52
2615.00,100.52
2614.00,100.52
2613.00,100.52
2612.00,100.52
2611.00,100.52
2610.00,100.51
2609.00,100.51
2608.00,100.51
2607.00,100.51
2606.00,100.51
2605.00,100.51
2604.00,100.51
2603.00,100.51
2602.00,100.51
2601.00,100.51
2600.00,100.51
2599.00,100.51
2598.00,100.51
2597.00,100.51
2596.00,100.51
2595.00,100.51
2594.00,100.51
2593.00,100.51
2592.00,100.51
2591.00,100.51
2590.00,100.51
2589.00,100.51
2588.00,100.51
2587.00,100.51
2586.00,100.51
2585.00,100.51
2584.00,100.51
2583.00,100.51
2582.00,100.51
2581.00,100.52
2580.00,100.52
2579.00,100.51
2578.00,100.51
2577.00,100.51
2576.00,100.51
2575.00,100.51
2574.00,100.50
2573.00,100.50
2572.00,100.50
2571.00,100.50
2570.00,100.50
2569.00,100.51
2568.00,100.51
2567.00,100.52
2566.00,100.52
2565.00,100.52
2564.00,100.51
2563.00,100.51
2562.00,100.51
2561.00,100.51
2560.00,100.50
2559.00,100.50
2558.00,100.51
2557.00,100.50
2556.00,100.50
2555.00,100.50
2554.00,100.50
2553.00,100.51
2552.00,100.51
2551.00,100.51
2550.00,100.51
2549.00,100.51
2548.00,100.51
2547.00,100.51
2546.00,100.51
2545.00,100.51
2544.00,100.51
2543.00,100.51
2542.00,100.51
2541.00,100.51
2540.00,100.51
2539.00,100.51
2538.00,100.51
2537.00,100.51
2536.00,100.51
2535.00,100.51
2534.00,100.51
2533.00,100.51
2532.00,100.51
2531.00,100.51
2530.00,100.51
2529.00,100.51
2528.00,100.51
2527.00,100.50
2526.00,100.50
2525.00,100.51
2524.00,100.51
2523.00,100.51
2522.00,100.51
2521.00,100.51
2520.00,100.51
2519.00,100.51
2518.00,100.51
2517.00,100.51
2516.00,100.51
2515.00,100.51
2514.00,100.51
2513.00,100.51
2512.00,100.51
2511.00,100.50
2510.00,100.50
2509.00,100.50
2508.00,100.50
2507.00,100.50
2506.00,100.50
2505.00,100.51
2504.00,100.50
2503.00,100.50
2502.00,100.50
2501.00,100.50
2500.00,100.49
2499.00,100.50
2498.00,100.50
2497.00,100.50
2496.00,100.50
2495.00,100.50
2494.00,100.51
2493.00,100.51
2492.00,100.51
2491.00,100.51
2490.00,100.51
2489.00,100.50
2488.00,100.50
2487.00,100.49
2486.00,100.49
2485.00,100.49
2484.00,100.50
2483.00,100.50
2482.00,100.50
2481.00,100.50
2480.00,100.50
2479.00,100.50
2478.00,100.50
2477.00,100.50
2476.00,100.50
2475.00,100.50
2474.00,100.50
2473.00,100.50
2472.00,100.50
2471.00,100.50
2470.00,100.50
2469.00,100.50
2468.00,100.50
2467.00,100.50
2466.00,100.50
2465.00,100.50
2464.00,100.50
2463.00,100.50
2462.00,100.50
2461.00,100.50
2460.00,100.50
2459.00,100.49
2458.00,100.49
2457.00,100.49
2456.00,100.49
2455.00,100.49
2454.00,100.50
2453.00,100.50
2452.00,100.50
2451.00,100.49
2450.00,100.49
2449.00,100.49
2448.00,100.49
2447.00,100.49
2446.00,100.49
2445.00,100.49
2444.00,100.49
2443.00,100.49
2442.00,100.49
2441.00,100.49
2440.00,100.49
2439.00,100.49
2438.00,100.49
2437.00,100.49
2436.00,100.49
2435.00,100.49
2434.00,100.50
2433.00,100.50
2432.00,100.50
2431.00,100.50
2430.00,100.50
2429.00,100.50
2428.00,100.50
2427.00,100.49
2426.00,100.49
2425.00,100.49
2424.00,100.49
2423.00,100.49
2422.00,100.49
2421.00,100.49
2420.00,100.49
2419.00,100.49
2418.00,100.48
2417.00,100.48
2416.00,100.48
2415.00,100.48
2414.00,100.48
2413.00,100.48
2412.00,100.48
2411.00,100.48
2410.00,100.48
2409.00,100.48
2408.00,100.48
2407.00,100.48
2406.00,100.49
2405.00,100.49
2404.00,100.49
2403.00,100.49
2402.00,100.48
2401.00,100.49
2400.00,100.49
2399.00,100.49
2398.00,100.49
2397.00,100.49
2396.00,100.48
2395.00,100.48
2394.00,100.48
2393.00,100.48
2392.00,100.48
2391.00,100.48
2390.00,100.47
2389.00,100.46
2388.00,100.45
2387.00,100.43
2386.00,100.41
2385.00,100.38
2384.00,100.37
2383.00,100.36
2382.00,100.37
2381.00,100.40
2380.00,100.46
2379.00,100.53
2378.00,100.59
2377.00,100.64
2376.00,100.66
2375.00,100.65
2374.00,100.61
2373.00,100.56
2372.00,100.51
2371.00,100.47
2370.00,100.45
2369.00,100.45
2368.00,100.46
2367.00,100.46
2366.00,100.46
2365.00,100.45
2364.00,100.45
2363.00,100.45
2362.00,100.45
2361.00,100.44
2360.00,100.43
2359.00,100.42
2358.00,100.40
2357.00,100.40
2356.00,100.41
2355.00,100.43
2354.00,100.45
2353.00,100.47
2352.00,100.50
2351.00,100.51
2350.00,100.49
2349.00,100.44
2348.00,100.37
2347.00,100.32
2346.00,100.30
2345.00,100.30
2344.00,100.30
2343.00,100.29
2342.00,100.29
2341.00,100.33
2340.00,100.39
2339.00,100.44
2338.00,100.48
2337.00,100.50
2336.00,100.51
2335.00,100.52
2334.00,100.52
2333.00,100.52
2332.00,100.52
2331.00,100.52
2330.00,100.49
2329.00,100.45
2328.00,100.41
2327.00,100.36
2326.00,100.33
2325.00,100.31
2324.00,100.32
2323.00,100.34
2322.00,100.36
2321.00,100.38
2320.00,100.39
2319.00,100.39
2318.00,100.38
2317.00,100.37
2316.00,100.37
2315.00,100.37
2314.00,100.38
2313.00,100.37
2312.00,100.36
2311.00,100.34
2310.00,100.33
2309.00,100.32
2308.00,100.32
2307.00,100.32
2306.00,100.33
2305.00,100.32
2304.00,100.31
2303.00,100.29
2302.00,100.27
2301.00,100.26
2300.00,100.26
2299.00,100.27
2298.00,100.27
2297.00,100.28
2296.00,100.29
2295.00,100.30
2294.00,100.30
2293.00,100.31
2292.00,100.32
2291.00,100.33
2290.00,100.34
2289.00,100.35
2288.00,100.35
2287.00,100.36
2286.00,100.37
2285.00,100.38
2284.00,100.38
2283.00,100.39
2282.00,100.39
2281.00,100.39
2280.00,100.39
2279.00,100.39
2278.00,100.39
2277.00,100.39
2276.00,100.39
2275.00,100.40
2274.00,100.40
2273.00,100.40
2272.00,100.40
2271.00,100.39
2270.00,100.39
2269.00,100.39
2268.00,100.40
2267.00,100.40
2266.00,100.41
2265.00,100.41
2264.00,100.42
2263.00,100.42
2262.00,100.41
2261.00,100.41
2260.00,100.40
2259.00,100.39
2258.00,100.39
2257.00,100.40
2256.00,100.40
2255.00,100.41
2254.00,100.41
2253.00,100.41
2252.00,100.41
2251.00,100.41
2250.00,100.42
2249.00,100.43
2248.00,100.43
2247.00,100.43
2246.00,100.43
2245.00,100.43
2244.00,100.42
2243.00,100.42
2242.00,100.42
2241.00,100.42
2240.00,100.42
2239.00,100.42
2238.00,100.42
2237.00,100.42
2236.00,100.43
2235.00,100.43
2234.00,100.43
2233.00,100.43
2232.00,100.42
2231.00,100.42
2230.00,100.42
2229.00,100.43
2228.00,100.44
2227.00,100.45
2226.00,100.45
2225.00,100.44
2224.00,100.43
2223.00,100.41
2222.00,100.41
2221.00,100.42
2220.00,100.42
2219.00,100.43
2218.00,100.43
2217.00,100.42
2216.00,100.41
2215.00,100.40
2214.00,100.40
2213.00,100.41
2212.00,100.41
2211.00,100.42
2210.00,100.42
2209.00,100.43
2208.00,100.43
2207.00,100.43
2206.00,100.42
2205.00,100.42
2204.00,100.42
2203.00,100.42
2202.00,100.43
2201.00,100.43
2200.00,100.43
2199.00,100.43
2198.00,100.42
2197.00,100.42
2196.00,100.42
2195.00,100.42
2194.00,100.42
2193.00,100.42
2192.00,100.42
2191.00,100.42
2190.00,100.42
2189.00,100.42
2188.00,100.42
2187.00,100.42
2186.00,100.42
2185.00,100.42
2184.00,100.43
2183.00,100.44
2182.00,100.45
2181.00,100.46
2180.00,100.45
2179.00,100.44
2178.00,100.42
2177.00,100.42
2176.00,100.42
2175.00,100.42
2174.00,100.42
2173.00,100.42
2172.00,100.43
2171.00,100.43
2170.00,100.43
2169.00,100.42
2168.00,100.40
2167.00,100.39
2166.00,100.37
2165.00,100.37
2164.00,100.36
2163.00,100.36
2162.00,100.36
2161.00,100.38
2160.00,100.40
2159.00,100.42
2158.00,100.45
2157.00,100.46
2156.00,100.47
2155.00,100.48
2154.00,100.47
2153.00,100.46
2152.00,100.44
2151.00,100.43
2150.00,100.43
2149.00,100.43
2148.00,100.44
2147.00,100.44
2146.00,100.45
2145.00,100.45
2144.00,100.46
2143.00,100.46
2142.00,100.46
2141.00,100.46
2140.00,100.46
2139.00,100.45
2138.00,100.45
2137.00,100.45
2136.00,100.45
2135.00,100.45
2134.00,100.45
2133.00,100.45
2132.00,100.45
2131.00,100.45
2130.00,100.45
2129.00,100.44
2128.00,100.44
2127.00,100.44
2126.00,100.43
2125.00,100.43
2124.00,100.43
2123.00,100.42
2122.00,100.42
2121.00,100.41
2120.00,100.41
2119.00,100.41
2118.00,100.42
2117.00,100.42
2116.00,100.43
2115.00,100.43
2114.00,100.42
2113.00,100.41
2112.00,100.41
2111.00,100.41
2110.00,100.41
2109.00,100.41
2108.00,100.41
2107.00,100.40
2106.00,100.40
2105.00,100.40
2104.00,100.40
2103.00,100.40
2102.00,100.39
2101.00,100.39
2100.00,100.40
2099.00,100.40
2098.00,100.40
2097.00,100.40
2096.00,100.40
2095.00,100.40
2094.00,100.40
2093.00,100.41
2092.00,100.41
2091.00,100.41
2090.00,100.40
2089.00,100.40
2088.00,100.40
2087.00,100.39
2086.00,100.39
2085.00,100.39
2084.00,100.38
2083.00,100.39
2082.00,100.39
2081.00,100.40
2080.00,100.40
2079.00,100.40
2078.00,100.40
2077.00,100.40
2076.00,100.40
2075.00,100.39
2074.00,100.38
2073.00,100.38
2072.00,100.38
2071.00,100.38
2070.00,100.38
2069.00,100.38
2068.00,100.38
2067.00,100.38
2066.00,100.37
2065.00,100.38
2064.00,100.38
2063.00,100.39
2062.00,100.39
2061.00,100.39
2060.00,100.39
2059.00,100.38
2058.00,100.37
2057.00,100.36
2056.00,100.36
2055.00,100.37
2054.00,100.37
2053.00,100.37
2052.00,100.36
2051.00,100.35
2050.00,100.35
2049.00,100.35
2048.00,100.35
2047.00,100.36
2046.00,100.36
2045.00,100.36
2044.00,100.36
2043.00,100.36
2042.00,100.36
2041.00,100.36
2040.00,100.36
2039.00,100.36
2038.00,100.35
2037.00,100.34
2036.00,100.33
2035.00,100.33
2034.00,100.33
2033.00,100.35
2032.00,100.36
2031.00,100.37
2030.00,100.37
2029.00,100.37
2028.00,100.38
2027.00,100.38
2026.00,100.39
2025.00,100.39
2024.00,100.40
2023.00,100.40
2022.00,100.40
2021.00,100.39
2020.00,100.38
2019.00,100.37
2018.00,100.36
2017.00,100.36
2016.00,100.36
2015.00,100.37
2014.00,100.37
2013.00,100.37
2012.00,100.37
2011.00,100.36
2010.00,100.35
2009.00,100.35
2008.00,100.35
2007.00,100.36
2006.00,100.36
2005.00,100.36
2004.00,100.36
2003.00,100.36
2002.00,100.36
2001.00,100.37
2000.00,100.37
1999.00,100.37
1998.00,100.36
1997.00,100.36
1996.00,100.35
1995.00,100.34
1994.00,100.34
1993.00,100.35
1992.00,100.36
1991.00,100.37
1990.00,100.37
1989.00,100.37
1988.00,100.36
1987.00,100.35
1986.00,100.35
1985.00,100.34
1984.00,100.34
1983.00,100.34
1982.00,100.33
1981.00,100.32
1980.00,100.32
1979.00,100.32
1978.00,100.33
1977.00,100.34
1976.00,100.35
1975.00,100.36
1974.00,100.37
1973.00,100.36
1972.00,100.36
1971.00,100.36
1970.00,100.36
1969.00,100.36
1968.00,100.36
1967.00,100.35
1966.00,100.34
1965.00,100.33
1964.00,100.33
1963.00,100.34
1962.00,100.35
1961.00,100.36
1960.00,100.37
1959.00,100.38
1958.00,100.38
1957.00,100.38
1956.00,100.38
1955.00,100.38
1954.00,100.38
1953.00,100.38
1952.00,100.38
1951.00,100.38
1950.00,100.38
1949.00,100.38
1948.00,100.37
1947.00,100.37
1946.00,100.37
1945.00,100.37
1944.00,100.38
1943.00,100.38
1942.00,100.38
1941.00,100.37
1940.00,100.36
1939.00,100.36
1938.00,100.36
1937.00,100.36
1936.00,100.37
1935.00,100.37
1934.00,100.38
1933.00,100.38
1932.00,100.38
1931.00,100.37
1930.00,100.37
1929.00,100.37
1928.00,100.36
1927.00,100.36
1926.00,100.37
1925.00,100.37
1924.00,100.37
1923.00,100.36
1922.00,100.36
1921.00,100.35
1920.00,100.35
1919.00,100.35
1918.00,100.36
1917.00,100.36
1916.00,100.36
1915.00,100.36
1914.00,100.36
1913.00,100.35
1912.00,100.35
1911.00,100.35
1910.00,100.35
1909.00,100.35
1908.00,100.35
1907.00,100.35
1906.00,100.35
1905.00,100.35
1904.00,100.35
1903.00,100.35
1902.00,100.35
1901.00,100.35
1900.00,100.35
1899.00,100.35
1898.00,100.35
1897.00,100.36
1896.00,100.36
1895.00,100.35
1894.00,100.35
1893.00,100.35
1892.00,100.36
1891.00,100.36
1890.00,100.35
1889.00,100.35
1888.00,100.35
1887.00,100.35
1886.00,100.35
1885.00,100.35
1884.00,100.35
1883.00,100.35
1882.00,100.35
1881.00,100.35
1880.00,100.35
1879.00,100.35
1878.00,100.35
1877.00,100.36
1876.00,100.35
1875.00,100.35
1874.00,100.35
1873.00,100.35
1872.00,100.35
1871.00,100.36
1870.00,100.36
1869.00,100.36
1868.00,100.36
1867.00,100.35
1866.00,100.35
1865.00,100.34
1864.00,100.34
1863.00,100.34
1862.00,100.34
1861.00,100.34
1860.00,100.34
1859.00,100.34
1858.00,100.34
1857.00,100.34
1856.00,100.34
1855.00,100.34
1854.00,100.35
1853.00,100.35
1852.00,100.35
1851.00,100.35
1850.00,100.35
1849.00,100.35
1848.00,100.35
1847.00,100.34
1846.00,100.34
1845.00,100.34
1844.00,100.34
1843.00,100.34
1842.00,100.34
1841.00,100.34
1840.00,100.34
1839.00,100.34
1838.00,100.34
1837.00,100.34
1836.00,100.34
1835.00,100.34
1834.00,100.35
1833.00,100.35
1832.00,100.35
1831.00,100.35
1830.00,100.34
1829.00,100.34
1828.00,100.34
1827.00,100.34
1826.00,100.34
1825.00,100.34
1824.00,100.34
1823.00,100.34
1822.00,100.34
1821.00,100.34
1820.00,100.34
1819.00,100.34
1818.00,100.35
1817.00,100.35
1816.00,100.35
1815.00,100.34
1814.00,100.34
1813.00,100.34
1812.00,100.34
1811.00,100.34
1810.00,100.34
1809.00,100.34
1808.00,100.34
1807.00,100.34
1806.00,100.34
1805.00,100.34
1804.00,100.34
1803.00,100.34
1802.00,100.34
1801.00,100.34
1800.00,100.34
1799.00,100.34
1798.00,100.34
1797.00,100.34
1796.00,100.34
1795.00,100.33
1794.00,100.33
1793.00,100.33
1792.00,100.33
1791.00,100.33
1790.00,100.33
1789.00,100.33
1788.00,100.33
1787.00,100.33
1786.00,100.34
1785.00,100.34
1784.00,100.34
1783.00,100.34
1782.00,100.34
1781.00,100.34
1780.00,100.34
1779.00,100.34
1778.00,100.33
1777.00,100.33
1776.00,100.33
1775.00,100.34
1774.00,100.33
1773.00,100.33
1772.00,100.32
1771.00,100.32
1770.00,100.32
1769.00,100.32
1768.00,100.32
1767.00,100.32
1766.00,100.33
1765.00,100.33
1764.00,100.33
1763.00,100.32
1762.00,100.32
1761.00,100.32
1760.00,100.32
1759.00,100.32
1758.00,100.32
1757.00,100.33
1756.00,100.33
1755.00,100.33
1754.00,100.33
1753.00,100.33
1752.00,100.33
1751.00,100.33
1750.00,100.33
1749.00,100.32
1748.00,100.32
1747.00,100.32
1746.00,100.31
1745.00,100.31
1744.00,100.31
1743.00,100.31
1742.00,100.31
1741.00,100.31
1740.00,100.31
1739.00,100.31
1738.00,100.31
1737.00,100.31
1736.00,100.31
1735.00,100.31
1734.00,100.31
1733.00,100.31
1732.00,100.30
1731.00,100.30
1730.00,100.30
1729.00,100.30
1728.00,100.30
1727.00,100.30
1726.00,100.30
1725.00,100.30
1724.00,100.30
1723.00,100.30
1722.00,100.30
1721.00,100.30
1720.00,100.30
1719.00,100.30
1718.00,100.31
1717.00,100.30
1716.00,100.30
1715.00,100.29
1714.00,100.29
1713.00,100.30
1712.00,100.30
1711.00,100.30
1710.00,100.30
1709.00,100.30
1708.00,100.30
1707.00,100.30
1706.00,100.30
1705.00,100.30
1704.00,100.31
1703.00,100.31
1702.00,100.31
1701.00,100.30
1700.00,100.30
1699.00,100.30
1698.00,100.29
1697.00,100.29
1696.00,100.30
1695.00,100.31
1694.00,100.31
1693.00,100.31
1692.00,100.31
1691.00,100.31
1690.00,100.31
1689.00,100.31
1688.00,100.31
1687.00,100.31
1686.00,100.30
1685.00,100.30
1684.00,100.31
1683.00,100.31
1682.00,100.31
1681.00,100.30
1680.00,100.30
1679.00,100.30
1678.00,100.30
1677.00,100.30
1676.00,100.30
1675.00,100.30
1674.00,100.30
1673.00,100.30
1672.00,100.30
1671.00,100.30
1670.00,100.30
1669.00,100.30
1668.00,100.30
1667.00,100.30
1666.00,100.30
1665.00,100.30
1664.00,100.30
1663.00,100.30
1662.00,100.30
1661.00,100.30
1660.00,100.29
1659.00,100.29
1658.00,100.29
1657.00,100.29
1656.00,100.30
1655.00,100.29
1654.00,100.29
1653.00,100.29
1652.00,100.29
1651.00,100.29
1650.00,100.28
1649.00,100.28
1648.00,100.28
1647.00,100.28
1646.00,100.28
1645.00,100.29
1644.00,100.29
1643.00,100.29
1642.00,100.29
1641.00,100.29
1640.00,100.29
1639.00,100.30
1638.00,100.30
1637.00,100.30
1636.00,100.30
1635.00,100.30
1634.00,100.29
1633.00,100.29
1632.00,100.30
1631.00,100.30
1630.00,100.30
1629.00,100.30
1628.00,100.30
1627.00,100.30
1626.00,100.30
1625.00,100.30
1624.00,100.30
1623.00,100.30
1622.00,100.30
1621.00,100.30
1620.00,100.29
1619.00,100.29
1618.00,100.29
1617.00,100.29
1616.00,100.29
1615.00,100.29
1614.00,100.29
1613.00,100.29
1612.00,100.30
1611.00,100.30
1610.00,100.30
1609.00,100.30
1608.00,100.29
1607.00,100.30
1606.00,100.30
1605.00,100.30
1604.00,100.30
1603.00,100.30
1602.00,100.30
1601.00,100.30
1600.00,100.30
1599.00,100.30
1598.00,100.30
1597.00,100.30
1596.00,100.30
1595.00,100.30
1594.00,100.30
1593.00,100.30
1592.00,100.30
1591.00,100.30
1590.00,100.31
1589.00,100.31
1588.00,100.31
1587.00,100.31
1586.00,100.31
1585.00,100.31
1584.00,100.31
1583.00,100.31
1582.00,100.31
1581.00,100.31
1580.00,100.31
1579.00,100.31
1578.00,100.31
1577.00,100.31
1576.00,100.31
1575.00,100.31
1574.00,100.31
1573.00,100.31
1572.00,100.31
1571.00,100.31
1570.00,100.31
1569.00,100.31
1568.00,100.31
1567.00,100.31
1566.00,100.31
1565.00,100.31
1564.00,100.31
1563.00,100.31
1562.00,100.32
1561.00,100.31
1560.00,100.32
1559.00,100.32
1558.00,100.31
1557.00,100.30
1556.00,100.29
1555.00,100.29
1554.00,100.30
1553.00,100.30
1552.00,100.30
1551.00,100.31
1550.00,100.31
1549.00,100.31
1548.00,100.31
1547.00,100.30
1546.00,100.30
1545.00,100.30
1544.00,100.29
1543.00,100.29
1542.00,100.28
1541.00,100.28
1540.00,100.29
1539.00,100.29
1538.00,100.29
1537.00,100.29
1536.00,100.29
1535.00,100.29
1534.00,100.29
1533.00,100.29
1532.00,100.29
1531.00,100.29
1530.00,100.29
1529.00,100.29
1528.00,100.29
1527.00,100.29
1526.00,100.29
1525.00,100.28
1524.00,100.27
1523.00,100.27
1522.00,100.27
1521.00,100.27
1520.00,100.27
1519.00,100.27
1518.00,100.27
1517.00,100.28
1516.00,100.28
1515.00,100.28
1514.00,100.27
1513.00,100.27
1512.00,100.27
1511.00,100.27
1510.00,100.27
1509.00,100.26
1508.00,100.26
1507.00,100.27
1506.00,100.28
1505.00,100.27
1504.00,100.27
1503.00,100.26
1502.00,100.26
1501.00,100.27
1500.00,100.26
1499.00,100.26
1498.00,100.26
1497.00,100.26
1496.00,100.26
1495.00,100.26
1494.00,100.26
1493.00,100.26
1492.00,100.26
1491.00,100.27
1490.00,100.27
1489.00,100.26
1488.00,100.26
1487.00,100.26
1486.00,100.26
1485.00,100.26
1484.00,100.26
1483.00,100.26
1482.00,100.26
1481.00,100.26
1480.00,100.26
1479.00,100.26
1478.00,100.26
1477.00,100.26
1476.00,100.26
1475.00,100.26
1474.00,100.25
1473.00,100.25
1472.00,100.26
1471.00,100.26
1470.00,100.26
1469.00,100.26
1468.00,100.27
1467.00,100.27
1466.00,100.26
1465.00,100.26
1464.00,100.25
1463.00,100.25
1462.00,100.25
1461.00,100.25
1460.00,100.25
1459.00,100.25
1458.00,100.25
1457.00,100.25
1456.00,100.25
1455.00,100.25
1454.00,100.25
1453.00,100.25
1452.00,100.25
1451.00,100.26
1450.00,100.26
1449.00,100.26
1448.00,100.26
1447.00,100.26
1446.00,100.26
1445.00,100.26
1444.00,100.25
1443.00,100.25
1442.00,100.25
1441.00,100.25
1440.00,100.25
1439.00,100.25
1438.00,100.25
1437.00,100.25
1436.00,100.25
1435.00,100.25
1434.00,100.25
1433.00,100.25
1432.00,100.25
1431.00,100.25
1430.00,100.25
1429.00,100.25
1428.00,100.25
1427.00,100.25
1426.00,100.25
1425.00,100.25
1424.00,100.25
1423.00,100.25
1422.00,100.25
1421.00,100.25
1420.00,100.25
1419.00,100.24
1418.00,100.24
1417.00,100.24
1416.00,100.23
1415.00,100.23
1414.00,100.23
1413.00,100.23
1412.00,100.23
1411.00,100.23
1410.00,100.23
1409.00,100.22
1408.00,100.22
1407.00,100.22
1406.00,100.22
1405.00,100.22
1404.00,100.21
1403.00,100.21
1402.00,100.20
1401.00,100.20
1400.00,100.20
1399.00,100.19
1398.00,100.19
1397.00,100.18
1396.00,100.18
1395.00,100.18
1394.00,100.18
1393.00,100.18
1392.00,100.18
1391.00,100.18
1390.00,100.18
1389.00,100.18
1388.00,100.18
1387.00,100.18
1386.00,100.17
1385.00,100.17
1384.00,100.17
1383.00,100.17
1382.00,100.17
1381.00,100.17
1380.00,100.18
1379.00,100.18
1378.00,100.18
1377.00,100.18
1376.00,100.18
1375.00,100.19
1374.00,100.19
1373.00,100.20
1372.00,100.20
1371.00,100.20
1370.00,100.20
1369.00,100.21
1368.00,100.21
1367.00,100.21
1366.00,100.21
1365.00,100.22
1364.00,100.22
1363.00,100.22
1362.00,100.22
1361.00,100.22
1360.00,100.22
1359.00,100.22
1358.00,100.22
1357.00,100.22
1356.00,100.23
1355.00,100.23
1354.00,100.23
1353.00,100.23
1352.00,100.23
1351.00,100.23
1350.00,100.23
1349.00,100.23
1348.00,100.23
1347.00,100.24
1346.00,100.24
1345.00,100.24
1344.00,100.24
1343.00,100.24
1342.00,100.24
1341.00,100.24
1340.00,100.24
1339.00,100.24
1338.00,100.24
1337.00,100.24
1336.00,100.24
1335.00,100.24
1334.00,100.24
1333.00,100.24
1332.00,100.24
1331.00,100.25
1330.00,100.25
1329.00,100.25
1328.00,100.25
1327.00,100.25
1326.00,100.25
1325.00,100.25
1324.00,100.25
1323.00,100.25
1322.00,100.25
1321.00,100.25
1320.00,100.24
1319.00,100.24
1318.00,100.24
1317.00,100.25
1316.00,100.25
1315.00,100.25
1314.00,100.25
1313.00,100.25
1312.00,100.25
1311.00,100.25
1310.00,100.25
1309.00,100.25
1308.00,100.25
1307.00,100.25
1306.00,100.25
1305.00,100.25
1304.00,100.25
1303.00,100.25
1302.00,100.25
1301.00,100.25
1300.00,100.25
1299.00,100.25
1298.00,100.25
1297.00,100.25
1296.00,100.25
1295.00,100.25
1294.00,100.25
1293.00,100.25
1292.00,100.25
1291.00,100.25
1290.00,100.24
1289.00,100.24
1288.00,100.24
1287.00,100.24
1286.00,100.24
1285.00,100.24
1284.00,100.23
1283.00,100.23
1282.00,100.23
1281.00,100.23
1280.00,100.22
1279.00,100.22
1278.00,100.22
1277.00,100.22
1276.00,100.22
1275.00,100.22
1274.00,100.21
1273.00,100.21
1272.00,100.21
1271.00,100.21
1270.00,100.20
1269.00,100.20
1268.00,100.20
1267.00,100.19
1266.00,100.19
1265.00,100.19
1264.00,100.19
1263.00,100.19
1262.00,100.19
1261.00,100.19
1260.00,100.19
1259.00,100.19
1258.00,100.18
1257.00,100.18
1256.00,100.18
1255.00,100.18
1254.00,100.18
1253.00,100.18
1252.00,100.18
1251.00,100.18
1250.00,100.18
1249.00,100.18
1248.00,100.18
1247.00,100.18
1246.00,100.18
1245.00,100.18
1244.00,100.18
1243.00,100.18
1242.00,100.18
1241.00,100.18
1240.00,100.18
1239.00,100.18
1238.00,100.18
1237.00,100.18
1236.00,100.19
1235.00,100.19
1234.00,100.19
1233.00,100.19
1232.00,100.19
1231.00,100.19
1230.00,100.19
1229.00,100.19
1228.00,100.18
1227.00,100.18
1226.00,100.18
1225.00,100.18
1224.00,100.18
1223.00,100.18
1222.00,100.18
1221.00,100.18
1220.00,100.18
1219.00,100.18
1218.00,100.18
1217.00,100.18
1216.00,100.18
1215.00,100.17
1214.00,100.17
1213.00,100.17
1212.00,100.17
1211.00,100.17
1210.00,100.17
1209.00,100.17
1208.00,100.17
1207.00,100.17
1206.00,100.17
1205.00,100.16
1204.00,100.16
1203.00,100.16
1202.00,100.16
1201.00,100.16
1200.00,100.15
1199.00,100.15
1198.00,100.15
1197.00,100.15
1196.00,100.15
1195.00,100.14
1194.00,100.14
1193.00,100.14
1192.00,100.14
1191.00,100.14
1190.00,100.14
1189.00,100.14
1188.00,100.13
1187.00,100.13
1186.00,100.13
1185.00,100.13
1184.00,100.13
1183.00,100.13
1182.00,100.12
1181.00,100.12
1180.00,100.12
1179.00,100.11
1178.00,100.11
1177.00,100.11
1176.00,100.10
1175.00,100.10
1174.00,100.10
1173.00,100.10
1172.00,100.10
1171.00,100.09
1170.00,100.09
1169.00,100.09
1168.00,100.08
1167.00,100.08
1166.00,100.08
1165.00,100.08
1164.00,100.08
1163.00,100.08
1162.00,100.07
1161.00,100.07
1160.00,100.07
1159.00,100.07
1158.00,100.07
1157.00,100.07
1156.00,100.07
1155.00,100.07
1154.00,100.07
1153.00,100.06
1152.00,100.06
1151.00,100.06
1150.00,100.06
1149.00,100.06
1148.00,100.06
1147.00,100.06
1146.00,100.06
1145.00,100.06
1144.00,100.06
1143.00,100.06
1142.00,100.06
1141.00,100.06
1140.00,100.06
1139.00,100.07
1138.00,100.07
1137.00,100.07
1136.00,100.07
1135.00,100.07
1134.00,100.07
1133.00,100.07
1132.00,100.07
1131.00,100.07
1130.00,100.07
1129.00,100.07
1128.00,100.07
1127.00,100.07
1126.00,100.07
1125.00,100.08
1124.00,100.08
1123.00,100.08
1122.00,100.07
1121.00,100.07
1120.00,100.07
1119.00,100.07
1118.00,100.07
1117.00,100.07
1116.00,100.07
1115.00,100.07
1114.00,100.08
1113.00,100.08
1112.00,100.08
1111.00,100.08
1110.00,100.08
1109.00,100.08
1108.00,100.08
1107.00,100.08
1106.00,100.08
1105.00,100.08
1104.00,100.08
1103.00,100.08
1102.00,100.08
1101.00,100.07
1100.00,100.07
1099.00,100.07
1098.00,100.07
1097.00,100.07
1096.00,100.07
1095.00,100.07
1094.00,100.07
1093.00,100.07
1092.00,100.07
1091.00,100.07
1090.00,100.06
1089.00,100.06
1088.00,100.06
1087.00,100.06
1086.00,100.06
1085.00,100.06
1084.00,100.06
1083.00,100.05
1082.00,100.05
1081.00,100.06
1080.00,100.06
1079.00,100.06
1078.00,100.06
1077.00,100.05
1076.00,100.05
1075.00,100.04
1074.00,100.04
1073.00,100.04
1072.00,100.04
1071.00,100.04
1070.00,100.04
1069.00,100.04
1068.00,100.04
1067.00,100.04
1066.00,100.04
1065.00,100.04
1064.00,100.04
1063.00,100.05
1062.00,100.05
1061.00,100.05
1060.00,100.05
1059.00,100.05
1058.00,100.05
1057.00,100.06
1056.00,100.06
1055.00,100.05
1054.00,100.05
1053.00,100.05
1052.00,100.05
1051.00,100.05
1050.00,100.06
1049.00,100.06
1048.00,100.06
1047.00,100.07
1046.00,100.07
1045.00,100.07
1044.00,100.07
1043.00,100.07
1042.00,100.08
1041.00,100.08
1040.00,100.08
1039.00,100.08
1038.00,100.08
1037.00,100.08
1036.00,100.08
1035.00,100.08
1034.00,100.08
1033.00,100.08
1032.00,100.09
1031.00,100.09
1030.00,100.09
1029.00,100.09
1028.00,100.09
1027.00,100.10
1026.00,100.10
1025.00,100.10
1024.00,100.10
1023.00,100.10
1022.00,100.10
1021.00,100.11
1020.00,100.11
1019.00,100.11
1018.00,100.11
1017.00,100.11
1016.00,100.11
1015.00,100.11
1014.00,100.11
1013.00,100.11
1012.00,100.11
1011.00,100.12
1010.00,100.12
1009.00,100.12
1008.00,100.12
1007.00,100.12
1006.00,100.12
1005.00,100.12
1004.00,100.12
1003.00,100.12
1002.00,100.12
1001.00,100.12
1000.00,100.12
999.00,100.12
998.00,100.12
997.00,100.12
996.00,100.12
995.00,100.13
994.00,100.13
993.00,100.13
992.00,100.13
991.00,100.13
990.00,100.12
989.00,100.12
988.00,100.13
987.00,100.13
986.00,100.13
985.00,100.13
984.00,100.13
983.00,100.13
982.00,100.13
981.00,100.13
980.00,100.12
979.00,100.12
978.00,100.12
977.00,100.12
976.00,100.12
975.00,100.11
974.00,100.11
973.00,100.10
972.00,100.10
971.00,100.10
970.00,100.10
969.00,100.10
968.00,100.09
967.00,100.09
966.00,100.09
965.00,100.09
964.00,100.09
963.00,100.09
962.00,100.09
961.00,100.10
960.00,100.10
959.00,100.09
958.00,100.09
957.00,100.09
956.00,100.09
955.00,100.09
954.00,100.09
953.00,100.09
952.00,100.09
951.00,100.09
950.00,100.09
949.00,100.09
948.00,100.09
947.00,100.09
946.00,100.09
945.00,100.10
944.00,100.10
943.00,100.10
942.00,100.10
941.00,100.10
940.00,100.10
939.00,100.11
938.00,100.11
937.00,100.11
936.00,100.12
935.00,100.12
934.00,100.12
933.00,100.13
932.00,100.13
931.00,100.13
930.00,100.13
929.00,100.13
928.00,100.13
927.00,100.13
926.00,100.14
925.00,100.14
924.00,100.14
923.00,100.14
922.00,100.14
921.00,100.14
920.00,100.14
919.00,100.14
918.00,100.14
917.00,100.14
916.00,100.14
915.00,100.14
914.00,100.14
913.00,100.14
912.00,100.14
911.00,100.14
910.00,100.14
909.00,100.14
908.00,100.14
907.00,100.14
906.00,100.14
905.00,100.14
904.00,100.14
903.00,100.14
902.00,100.14
901.00,100.15
900.00,100.15
899.00,100.14
898.00,100.14
897.00,100.14
896.00,100.14
895.00,100.14
894.00,100.14
893.00,100.14
892.00,100.14
891.00,100.14
890.00,100.14
889.00,100.15
888.00,100.15
887.00,100.14
886.00,100.14
885.00,100.14
884.00,100.14
883.00,100.15
882.00,100.15
881.00,100.14
880.00,100.14
879.00,100.13
878.00,100.13
877.00,100.13
876.00,100.14
875.00,100.14
874.00,100.14
873.00,100.14
872.00,100.14
871.00,100.14
870.00,100.14
869.00,100.14
868.00,100.14
867.00,100.14
866.00,100.13
865.00,100.13
864.00,100.13
863.00,100.13
862.00,100.14
861.00,100.14
860.00,100.14
859.00,100.14
858.00,100.14
857.00,100.14
856.00,100.13
855.00,100.13
854.00,100.13
853.00,100.13
852.00,100.13
851.00,100.13
850.00,100.13
849.00,100.13
848.00,100.13
847.00,100.13
846.00,100.13
845.00,100.13
844.00,100.13
843.00,100.12
842.00,100.12
841.00,100.11
840.00,100.12
839.00,100.12
838.00,100.12
837.00,100.12
836.00,100.12
835.00,100.12
834.00,100.12
833.00,100.12
832.00,100.12
831.00,100.12
830.00,100.12
829.00,100.12
828.00,100.12
827.00,100.11
826.00,100.11
825.00,100.10
824.00,100.10
823.00,100.10
822.00,100.10
821.00,100.09
820.00,100.09
819.00,100.09
818.00,100.09
817.00,100.09
816.00,100.09
815.00,100.10
814.00,100.10
813.00,100.10
812.00,100.11
811.00,100.11
810.00,100.11
809.00,100.11
808.00,100.11
807.00,100.10
806.00,100.10
805.00,100.10
804.00,100.10
803.00,100.11
802.00,100.11
801.00,100.11
800.00,100.11
799.00,100.11
798.00,100.11
797.00,100.11
796.00,100.10
795.00,100.10
794.00,100.10
793.00,100.10
792.00,100.11
791.00,100.11
790.00,100.11
789.00,100.11
788.00,100.10
787.00,100.10
786.00,100.10
785.00,100.10
784.00,100.11
783.00,100.11
782.00,100.11
781.00,100.11
780.00,100.11
779.00,100.12
778.00,100.11
777.00,100.11
776.00,100.10
775.00,100.11
774.00,100.11
773.00,100.11
772.00,100.11
771.00,100.12
770.00,100.12
769.00,100.12
768.00,100.12
767.00,100.12
766.00,100.12
765.00,100.11
764.00,100.11
763.00,100.10
762.00,100.10
761.00,100.11
760.00,100.11
759.00,100.11
758.00,100.11
757.00,100.10
756.00,100.10
755.00,100.10
754.00,100.10
753.00,100.11
752.00,100.11
751.00,100.12
750.00,100.12
749.00,100.12
748.00,100.12
747.00,100.11
746.00,100.11
745.00,100.10
744.00,100.10
743.00,100.09
742.00,100.09
741.00,100.09
740.00,100.09
739.00,100.10
738.00,100.10
737.00,100.11
736.00,100.11
735.00,100.11
734.00,100.11
733.00,100.11
732.00,100.11
731.00,100.11
730.00,100.10
729.00,100.09
728.00,100.09
727.00,100.09
726.00,100.10
725.00,100.11
724.00,100.12
723.00,100.12
722.00,100.11
721.00,100.09
720.00,100.08
719.00,100.08
718.00,100.09
717.00,100.10
716.00,100.10
715.00,100.10
714.00,100.10
713.00,100.10
712.00,100.10
711.00,100.10
710.00,100.10
709.00,100.10
708.00,100.10
707.00,100.10
706.00,100.09
705.00,100.09
704.00,100.08
703.00,100.07
702.00,100.07
701.00,100.07
700.00,100.07
699.00,100.07
698.00,100.07
697.00,100.07
696.00,100.07
695.00,100.07
694.00,100.07
693.00,100.06
692.00,100.06
691.00,100.07
690.00,100.08
689.00,100.09
688.00,100.10
687.00,100.11
686.00,100.12
685.00,100.13
684.00,100.13
683.00,100.12
682.00,100.12
681.00,100.12
680.00,100.13
679.00,100.13
678.00,100.13
677.00,100.12
676.00,100.12
675.00,100.11
674.00,100.09
673.00,100.08
672.00,100.12
671.00,100.25
670.00,100.52
669.00,100.93
668.00,101.28
667.00,101.15
666.00,100.71
665.00,100.37
664.00,100.19
663.00,100.10
662.00,100.07
661.00,100.07
660.00,100.07
659.00,100.09
658.00,100.10
657.00,100.11
656.00,100.12
655.00,100.13
654.00,100.14
653.00,100.15
652.00,100.15
651.00,100.13
650.00,100.12
649.00,100.11
648.00,100.11
647.00,100.11
646.00,100.11
645.00,100.10
644.00,100.08
643.00,100.06
642.00,100.05
641.00,100.05
640.00,100.07
639.00,100.10
638.00,100.14
637.00,100.16
636.00,100.18
635.00,100.18
634.00,100.18
633.00,100.18
632.00,100.18
631.00,100.18
630.00,100.18
629.00,100.18
628.00,100.18
627.00,100.18
626.00,100.17
625.00,100.17
624.00,100.16
623.00,100.15
622.00,100.15
621.00,100.15
620.00,100.17
619.00,100.19
618.00,100.21
617.00,100.23
616.00,100.27
615.00,100.32
614.00,100.34
613.00,100.34
612.00,100.34
611.00,100.33
610.00,100.32
609.00,100.32
608.00,100.35
607.00,100.40
606.00,100.42
605.00,100.40
604.00,100.35
603.00,100.28
602.00,100.20
601.00,100.12
600.00,100.09
599.00,100.13
598.00,100.19
597.00,100.22
596.00,100.22
595.00,100.22
594.00,100.24
593.00,100.28
592.00,100.32
591.00,100.34
590.00,100.35
589.00,100.33
588.00,100.30
587.00,100.28
586.00,100.25
585.00,100.24
584.00,100.26
583.00,100.31
582.00,100.34
581.00,100.33
580.00,100.29
579.00,100.24
578.00,100.21
577.00,100.21
576.00,100.23
575.00,100.24
574.00,100.24
573.00,100.22
572.00,100.20
571.00,100.19
570.00,100.18
569.00,100.18
568.00,100.19
567.00,100.19
566.00,100.17
565.00,100.18
564.00,100.26
563.00,100.39
562.00,100.48
561.00,100.46
560.00,100.41
559.00,100.41
558.00,100.44
557.00,100.45
556.00,100.39
555.00,100.29
554.00,100.23
553.00,100.21
552.00,100.20
551.00,100.18
550.00,100.17
549.00,100.23
548.00,100.35
547.00,100.48
546.00,100.53
545.00,100.53
544.00,100.53
543.00,100.56
542.00,100.55
541.00,100.48
540.00,100.41
539.00,100.40
538.00,100.47
537.00,100.58
536.00,100.69
535.00,100.72
534.00,100.61
533.00,100.39
532.00,100.20
531.00,100.17
530.00,100.39
529.00,100.80
528.00,101.29
527.00,101.70
526.00,101.80
525.00,101.62
524.00,101.39
523.00,101.08
522.00,100.73
521.00,100.57
520.00,100.71
519.00,100.93
518.00,100.78
517.00,100.37
516.00,99.83
515.00,99.57
514.00,100.10
513.00,100.68
512.00,101.19
511.00,101.66
510.00,101.60
509.00,101.33
508.00,102.04
507.00,97.48
506.00,96.88
505.00,93.65
504.00,96.46
503.00,140.19
502.00,111.53
501.00,108.91
500.00,103.03
499.00,86.99
498.00,100.28
497.00,105.37
496.00,101.27
495.00,115.89
494.00,77.90
493.00,73.79
492.00,187.38
491.00,146.07
490.00,39.62
489.00,84.48
488.00,69.06
487.00,101.74
486.00,114.96
485.00,93.02
484.00,298.79
483.00,163.19
482.00,165.22
481.00,48.75
480.00,125.47
479.00,102.86
478.00,111.30
477.00,129.57
476.00,107.26
475.00,114.49
474.00,94.91
473.00,101.42
472.00,92.18
471.00,66.44
470.00,116.12
469.00,106.66
468.00,115.97
467.00,134.40
466.00,66.28
465.00,73.80
464.00,118.56
463.00,130.05
462.00,28.04
461.00,61.22
460.00,101.78
459.00,85.56
458.00,86.57
457.00,164.97
456.00,135.33
455.00,82.49
454.00,112.41
453.00,83.99
452.00,95.93
451.00,100.20
450.00,112.64
449.00,198.60
448.00,109.89
447.00,91.94
446.00,97.27
445.00,76.87
444.00,101.65
443.00,90.09
442.00,107.45
441.00,128.40
440.00,58.09
439.00,73.25
438.00,109.43
437.00,121.34
436.00,51.29
435.00,91.16
434.00,777.85
433.00,183.31
432.00,132.29
431.00,52.24
430.00,109.34
429.00,154.39
428.00,131.71
427.00,113.33
426.00,112.11
425.00,99.18
424.00,108.69
423.00,72.14
422.00,98.92
421.00,125.91
420.00,99.68
419.00,96.23
418.00,106.11
417.00,118.05
416.00,82.20
415.00,56.31
414.00,130.31
413.00,145.53
412.00,47.07
411.00,83.64
410.00,73.22
409.00,83.82
408.00,468.74
407.00,161.91
406.00,94.38
405.00,77.05
404.00,139.71
403.00,123.94
402.00,139.42
401.00,83.58
400.00,73.56
