Created as New Dataset,Sample 000 By FTIR User 2.0 Date Friday, April 12 2024
cm-1,%T
4000.00,100.04
3999.00,100.04
3998.00,100.04
3997.00,100.04
3996.00,100.04
3995.00,100.04
3994.00,100.04
3993.00,100.04
3992.00,100.04
3991.00,100.03
3990.00,100.03
3989.00,100.03
3988.00,100.03
3987.00,100.03
3986.00,100.03
3985.00,100.03
3984.00,100.03
3983.00,100.03
3982.00,100.03
3981.00,100.03
3980.00,100.03
3979.00,100.03
3978.00,100.03
3977.00,100.03
3976.00,100.03
3975.00,100.03
3974.00,100.02
3973.00,100.03
3972.00,100.03
3971.00,100.03
3970.00,100.03
3969.00,100.03
3968.00,100.03
3967.00,100.03
3966.00,100.03
3965.00,100.03
3964.00,100.03
3963.00,100.03
3962.00,100.02
3961.00,100.02
3960.00,100.02
3959.00,100.02
3958.00,100.02
3957.00,100.02
3956.00,100.02
3955.00,100.02
3954.00,100.02
3953.00,100.02
3952.00,100.02
3951.00,100.02
3950.00,100.02
3949.00,100.02
3948.00,100.02
3947.00,100.02
3946.00,100.02
3945.00,100.01
3944.00,100.00
3943.00,100.00
3942.00,100.00
3941.00,100.01
3940.00,100.01
3939.00,100.02
3938.00,100.02
3937.00,100.02
3936.00,100.02
3935.00,100.02
3934.00,100.02
3933.00,100.02
3932.00,100.02
3931.00,100.01
3930.00,100.01
3929.00,100.00
3928.00,99.99
3927.00,99.99
3926.00,99.98
3925.00,99.99
3924.00,100.00
3923.00,100.00
3922.00,100.00
3921.00,100.00
3920.00,99.99
3919.00,99.99
3918.00,99.99
3917.00,100.00
3916.00,100.01
3915.00,100.01
3914.00,100.01
3913.00,100.01
3912.00,100.00
3911.00,100.00
3910.00,100.01
3909.00,100.01
3908.00,100.01
3907.00,100.00
3906.00,100.00
3905.00,99.99
3904.00,99.98
3903.00,99.96
3902.00,99.94
3901.00,99.93
3900.00,99.92
3899.00,99.92
3898.00,99.93
3897.00,99.94
3896.00,99.96
3895.00,99.96
3894.00,99.97
3893.00,99.97
3892.00,99.98
3891.00,99.98
3890.00,99.99
3889.00,99.99
3888.00,99.97
3887.00,99.96
3886.00,99.95
3885.00,99.95
3884.00,99.96
3883.00,99.95
3882.00,99.95
3881.00,99.94
3880.00,99.94
3879.00,99.96
3878.00,99.97
3877.00,99.97
3876.00,99.96
3875.00,99.96
3874.00,99.96
3873.00,99.96
3872.00,99.96
3871.00,99.95
3870.00,99.94
3869.00,99.93
3868.00,99.93
3867.00,99.92
3866.00,99.91
3865.00,99.91
3864.00,99.92
3863.00,99.93
3862.00,99.94
3861.00,99.95
3860.00,99.95
3859.00,99.95
3858.00,99.95
3857.00,99.95
3856.00,99.95
3855.00,99.94
3854.00,99.93
3853.00,99.91
3852.00,99.90
3851.00,99.89
3850.00,99.90
3849.00,99.90
3848.00,99.92
3847.00,99.93
3846.00,99.94
3845.00,99.95
3844.00,99.96
3843.00,99.96
3842.00,99.96
3841.00,99.95
3840.00,99.93
3839.00,99.92
3838.00,99.90
3837.00,99.89
3836.00,99.89
3835.00,99.89
3834.00,99.90
3833.00,99.90
3832.00,99.91
3831.00,99.93
3830.00,99.94
3829.00,99.95
3828.00,99.96
3827.00,99.96
3826.00,99.96
3825.00,99.96
3824.00,99.96
3823.00,99.95
3822.00,99.93
3821.00,99.92
3820.00,99.92
3819.00,99.92
3818.00,99.91
3817.00,99.90
3816.00,99.89
3815.00,99.90
3814.00,99.93
3813.00,99.95
3812.00,99.97
3811.00,99.97
3810.00,99.98
3809.00,99.98
3808.00,99.98
3807.00,99.99
3806.00,99.99
3805.00,99.98
3804.00,99.96
3803.00,99.94
3802.00,99.92
3801.00,99.92
3800.00,99.93
3799.00,99.93
3798.00,99.92
3797.00,99.91
3796.00,99.91
3795.00,99.93
3794.00,99.95
3793.00,99.97
3792.00,99.98
3791.00,99.98
3790.00,99.99
3789.00,100.00
3788.00,100.00
3787.00,100.00
3786.00,100.00
3785.00,100.00
3784.00,100.00
3783.00,100.00
3782.00,99.99
3781.00,99.98
3780.00,99.97
3779.00,99.97
3778.00,99.98
3777.00,99.98
3776.00,99.98
3775.00,99.98
3774.00,99.99
3773.00,99.99
3772.00,99.99
3771.00,99.99
3770.00,99.98
3769.00,99.98
3768.00,99.97
3767.00,99.96
3766.00,99.95
3765.00,99.95
3764.00,99.96
3763.00,99.96
3762.00,99.96
3761.00,99.96
3760.00,99.95
3759.00,99.95
3758.00,99.95
3757.00,99.96
3756.00,99.96
3755.00,99.95
3754.00,99.94
3753.00,99.93
3752.00,99.91
3751.00,99.90
3750.00,99.87
3749.00,99.85
3748.00,99.84
3747.00,99.82
3746.00,99.80
3745.00,99.80
3744.00,99.82
3743.00,99.86
3742.00,99.89
3741.00,99.90
3740.00,99.90
3739.00,99.90
3738.00,99.90
3737.00,99.90
3736.00,99.89
3735.00,99.89
3734.00,99.88
3733.00,99.87
3732.00,99.87
3731.00,99.88
3730.00,99.89
3729.00,99.91
3728.00,99.92
3727.00,99.92
3726.00,99.93
3725.00,99.94
3724.00,99.94
3723.00,99.94
3722.00,99.94
3721.00,99.94
3720.00,99.94
3719.00,99.94
3718.00,99.95
3717.00,99.95
3716.00,99.96
3715.00,99.96
3714.00,99.95
3713.00,99.95
3712.00,99.95
3711.00,99.94
3710.00,99.93
3709.00,99.92
3708.00,99.92
3707.00,99.93
3706.00,99.94
3705.00,99.95
3704.00,99.96
3703.00,99.96
3702.00,99.96
3701.00,99.97
3700.00,99.97
3699.00,99.97
3698.00,99.97
3697.00,99.98
3696.00,99.98
3695.00,99.99
3694.00,99.99
3693.00,99.99
3692.00,99.99
3691.00,99.98
3690.00,99.97
3689.00,99.94
3688.00,99.92
3687.00,99.91
3686.00,99.91
3685.00,99.92
3684.00,99.94
3683.00,99.95
3682.00,99.97
3681.00,99.98
3680.00,99.99
3679.00,99.99
3678.00,99.98
3677.00,99.96
3676.00,99.92
3675.00,99.90
3674.00,99.88
3673.00,99.87
3672.00,99.85
3671.00,99.83
3670.00,99.83
3669.00,99.85
3668.00,99.87
3667.00,99.90
3666.00,99.92
3665.00,99.93
3664.00,99.95
3663.00,99.97
3662.00,99.98
3661.00,99.99
3660.00,100.00
3659.00,100.00
3658.00,100.00
3657.00,100.00
3656.00,99.99
3655.00,99.98
3654.00,99.97
3653.00,99.94
3652.00,99.92
3651.00,99.91
3650.00,99.90
3649.00,99.89
3648.00,99.87
3647.00,99.85
3646.00,99.86
3645.00,99.87
3644.00,99.89
3643.00,99.92
3642.00,99.93
3641.00,99.95
3640.00,99.96
3639.00,99.97
3638.00,99.97
3637.00,99.98
3636.00,99.98
3635.00,99.98
3634.00,99.97
3633.00,99.97
3632.00,99.97
3631.00,99.96
3630.00,99.94
3629.00,99.92
3628.00,99.91
3627.00,99.91
3626.00,99.91
3625.00,99.92
3624.00,99.93
3623.00,99.94
3622.00,99.94
3621.00,99.95
3620.00,99.95
3619.00,99.94
3618.00,99.92
3617.00,99.91
3616.00,99.90
3615.00,99.89
3614.00,99.88
3613.00,99.89
3612.00,99.89
3611.00,99.90
3610.00,99.90
3609.00,99.90
3608.00,99.90
3607.00,99.91
3606.00,99.92
3605.00,99.93
3604.00,99.93
3603.00,99.94
3602.00,99.94
3601.00,99.95
3600.00,99.96
3599.00,99.96
3598.00,99.96
3597.00,99.95
3596.00,99.94
3595.00,99.93
3594.00,99.93
3593.00,99.94
3592.00,99.94
3591.00,99.94
3590.00,99.94
3589.00,99.93
3588.00,99.92
3587.00,99.92
3586.00,99.91
3585.00,99.91
3584.00,99.91
3583.00,99.92
3582.00,99.92
3581.00,99.93
3580.00,99.94
3579.00,99.94
3578.00,99.95
3577.00,99.95
3576.00,99.95
3575.00,99.95
3574.00,99.95
3573.00,99.95
3572.00,99.96
3571.00,99.96
3570.00,99.95
3569.00,99.95
3568.00,99.94
3567.00,99.93
3566.00,99.90
3565.00,99.89
3564.00,99.88
3563.00,99.88
3562.00,99.88
3561.00,99.90
3560.00,99.91
3559.00,99.92
3558.00,99.93
3557.00,99.93
3556.00,99.94
3555.00,99.94
3554.00,99.94
3553.00,99.94
3552.00,99.94
3551.00,99.93
3550.00,99.93
3549.00,99.92
3548.00,99.92
3547.00,99.92
3546.00,99.92
3545.00,99.92
3544.00,99.92
3543.00,99.91
3542.00,99.91
3541.00,99.91
3540.00,99.91
3539.00,99.91
3538.00,99.92
3537.00,99.93
3536.00,99.93
3535.00,99.93
3534.00,99.93
3533.00,99.93
3532.00,99.92
3531.00,99.92
3530.00,99.92
3529.00,99.92
3528.00,99.92
3527.00,99.92
3526.00,99.92
3525.00,99.91
3524.00,99.90
3523.00,99.90
3522.00,99.90
3521.00,99.90
3520.00,99.90
3519.00,99.90
3518.00,99.90
3517.00,99.91
3516.00,99.91
3515.00,99.92
3514.00,99.92
3513.00,99.92
3512.00,99.92
3511.00,99.91
3510.00,99.91
3509.00,99.90
3508.00,99.90
3507.00,99.90
3506.00,99.90
3505.00,99.90
3504.00,99.90
3503.00,99.90
3502.00,99.90
3501.00,99.90
3500.00,99.90
3499.00,99.89
3498.00,99.89
3497.00,99.89
3496.00,99.89
3495.00,99.89
3494.00,99.89
3493.00,99.90
3492.00,99.90
3491.00,99.90
3490.00,99.91
3489.00,99.91
3488.00,99.91
3487.00,99.90
3486.00,99.90
3485.00,99.89
3484.00,99.89
3483.00,99.89
3482.00,99.89
3481.00,99.90
3480.00,99.90
3479.00,99.90
3478.00,99.89
3477.00,99.89
3476.00,99.89
3475.00,99.89
3474.00,99.89
3473.00,99.89
3472.00,99.90
3471.00,99.90
3470.00,99.91
3469.00,99.91
3468.00,99.91
3467.00,99.90
3466.00,99.90
3465.00,99.90
3464.00,99.90
3463.00,99.89
3462.00,99.89
3461.00,99.89
3460.00,99.89
3459.00,99.89
3458.00,99.89
3457.00,99.89
3456.00,99.89
3455.00,99.88
3454.00,99.88
3453.00,99.88
3452.00,99.88
3451.00,99.88
3450.00,99.87
3449.00,99.87
3448.00,99.87
3447.00,99.87
3446.00,99.87
3445.00,99.87
3444.00,99.87
3443.00,99.87
3442.00,99.86
3441.00,99.86
3440.00,99.86
3439.00,99.87
3438.00,99.87
3437.00,99.88
3436.00,99.88
3435.00,99.88
3434.00,99.88
3433.00,99.88
3432.00,99.88
3431.00,99.88
3430.00,99.87
3429.00,99.87
3428.00,99.87
3427.00,99.86
3426.00,99.86
3425.00,99.85
3424.00,99.85
3423.00,99.85
3422.00,99.84
3421.00,99.84
3420.00,99.83
3419.00,99.84
3418.00,99.84
3417.00,99.84
3416.00,99.84
3415.00,99.84
3414.00,99.84
3413.00,99.85
3412.00,99.85
3411.00,99.85
3410.00,99.85
3409.00,99.85
3408.00,99.85
3407.00,99.85
3406.00,99.85
3405.00,99.85
3404.00,99.85
3403.00,99.85
3402.00,99.85
3401.00,99.85
3400.00,99.84
3399.00,99.84
3398.00,99.83
3397.00,99.83
3396.00,99.84
3395.00,99.84
3394.00,99.83
3393.00,99.83
3392.00,99.83
3391.00,99.83
3390.00,99.83
3389.00,99.83
3388.00,99.83
3387.00,99.83
3386.00,99.83
3385.00,99.83
3384.00,99.83
3383.00,99.82
3382.00,99.82
3381.00,99.82
3380.00,99.82
3379.00,99.82
3378.00,99.82
3377.00,99.82
3376.00,99.82
3375.00,99.82
3374.00,99.82
3373.00,99.81
3372.00,99.82
3371.00,99.82
3370.00,99.82
3369.00,99.82
3368.00,99.81
3367.00,99.81
3366.00,99.81
3365.00,99.81
3364.00,99.80
3363.00,99.80
3362.00,99.79
3361.00,99.79
3360.00,99.79
3359.00,99.79
3358.00,99.79
3357.00,99.79
3356.00,99.79
3355.00,99.79
3354.00,99.80
3353.00,99.80
3352.00,99.80
3351.00,99.80
3350.00,99.79
3349.00,99.79
3348.00,99.79
3347.00,99.79
3346.00,99.80
3345.00,99.80
3344.00,99.80
3343.00,99.79
3342.00,99.79
3341.00,99.78
3340.00,99.78
3339.00,99.78
3338.00,99.78
3337.00,99.78
3336.00,99.78
3335.00,99.77
3334.00,99.77
3333.00,99.77
3332.00,99.77
3331.00,99.78
3330.00,99.77
3329.00,99.77
3328.00,99.78
3327.00,99.78
3326.00,99.78
3325.00,99.78
3324.00,99.78
3323.00,99.77
3322.00,99.76
3321.00,99.76
3320.00,99.76
3319.00,99.76
3318.00,99.76
3317.00,99.76
3316.00,99.76
3315.00,99.76
3314.00,99.76
3313.00,99.76
3312.00,99.76
3311.00,99.75
3310.00,99.75
3309.00,99.75
3308.00,99.76
3307.00,99.76
3306.00,99.76
3305.00,99.76
3304.00,99.76
3303.00,99.76
3302.00,99.76
3301.00,99.76
3300.00,99.76
3299.00,99.76
3298.00,99.76
3297.00,99.77
3296.00,99.77
3295.00,99.77
3294.00,99.77
3293.00,99.76
3292.00,99.76
3291.00,99.76
3290.00,99.75
3289.00,99.75
3288.00,99.75
3287.00,99.75
3286.00,99.75
3285.00,99.75
3284.00,99.75
3283.00,99.76
3282.00,99.76
3281.00,99.75
3280.00,99.75
3279.00,99.75
3278.00,99.75
3277.00,99.75
3276.00,99.75
3275.00,99.75
3274.00,99.75
3273.00,99.75
3272.00,99.76
3271.00,99.76
3270.00,99.76
3269.00,99.76
3268.00,99.76
3267.00,99.75
3266.00,99.75
3265.00,99.75
3264.00,99.75
3263.00,99.76
3262.00,99.76
3261.00,99.76
3260.00,99.76
3259.00,99.77
3258.00,99.77
3257.00,99.77
3256.00,99.77
3255.00,99.77
3254.00,99.77
3253.00,99.77
3252.00,99.77
3251.00,99.77
3250.00,99.77
3249.00,99.77
3248.00,99.78
3247.00,99.78
3246.00,99.78
3245.00,99.78
3244.00,99.78
3243.00,99.78
3242.00,99.78
3241.00,99.78
3240.00,99.78
3239.00,99.78
3238.00,99.78
3237.00,99.79
3236.00,99.79
3235.00,99.80
3234.00,99.80
3233.00,99.80
3232.00,99.79
3231.00,99.79
3230.00,99.79
3229.00,99.79
3228.00,99.80
3227.00,99.80
3226.00,99.80
3225.00,99.79
3224.00,99.79
3223.00,99.78
3222.00,99.78
3221.00,99.78
3220.00,99.78
3219.00,99.78
3218.00,99.78
3217.00,99.78
3216.00,99.79
3215.00,99.79
3214.00,99.80
3213.00,99.80
3212.00,99.80
3211.00,99.80
3210.00,99.80
3209.00,99.80
3208.00,99.80
3207.00,99.80
3206.00,99.80
3205.00,99.80
3204.00,99.80
3203.00,99.80
3202.00,99.80
3201.00,99.80
3200.00,99.80
3199.00,99.81
3198.00,99.81
3197.00,99.81
3196.00,99.81
3195.00,99.81
3194.00,99.81
3193.00,99.81
3192.00,99.81
3191.00,99.81
3190.00,99.81
3189.00,99.82
3188.00,99.82
3187.00,99.82
3186.00,99.82
3185.00,99.82
3184.00,99.82
3183.00,99.82
3182.00,99.82
3181.00,99.82
3180.00,99.82
3179.00,99.82
3178.00,99.82
3177.00,99.82
3176.00,99.82
3175.00,99.82
3174.00,99.83
3173.00,99.83
3172.00,99.83
3171.00,99.84
3170.00,99.84
3169.00,99.84
3168.00,99.84
3167.00,99.84
3166.00,99.84
3165.00,99.84
3164.00,99.85
3163.00,99.84
3162.00,99.84
3161.00,99.84
3160.00,99.83
3159.00,99.83
3158.00,99.84
3157.00,99.84
3156.00,99.84
3155.00,99.84
3154.00,99.84
3153.00,99.85
3152.00,99.86
3151.00,99.86
3150.00,99.86
3149.00,99.86
3148.00,99.85
3147.00,99.85
3146.00,99.85
3145.00,99.86
3144.00,99.85
3143.00,99.85
3142.00,99.85
3141.00,99.86
3140.00,99.86
3139.00,99.86
3138.00,99.86
3137.00,99.86
3136.00,99.86
3135.00,99.86
3134.00,99.86
3133.00,99.86
3132.00,99.86
3131.00,99.86
3130.00,99.86
3129.00,99.86
3128.00,99.86
3127.00,99.86
3126.00,99.86
3125.00,99.86
3124.00,99.86
3123.00,99.86
3122.00,99.86
3121.00,99.86
3120.00,99.87
3119.00,99.87
3118.00,99.87
3117.00,99.87
3116.00,99.87
3115.00,99.87
3114.00,99.86
3113.00,99.86
3112.00,99.86
3111.00,99.86
3110.00,99.86
3109.00,99.86
3108.00,99.86
3107.00,99.86
3106.00,99.86
3105.00,99.86
3104.00,99.86
3103.00,99.86
3102.00,99.86
3101.00,99.85
3100.00,99.85
3099.00,99.85
3098.00,99.84
3097.00,99.84
3096.00,99.84
3095.00,99.84
3094.00,99.84
3093.00,99.84
3092.00,99.85
3091.00,99.85
3090.00,99.86
3089.00,99.86
3088.00,99.86
3087.00,99.86
3086.00,99.85
3085.00,99.85
3084.00,99.85
3083.00,99.86
3082.00,99.86
3081.00,99.86
3080.00,99.86
3079.00,99.86
3078.00,99.86
3077.00,99.86
3076.00,99.85
3075.00,99.85
3074.00,99.85
3073.00,99.85
3072.00,99.85
3071.00,99.85
3070.00,99.85
3069.00,99.85
3068.00,99.85
3067.00,99.84
3066.00,99.84
3065.00,99.84
3064.00,99.84
3063.00,99.84
3062.00,99.85
3061.00,99.85
3060.00,99.85
3059.00,99.84
3058.00,99.85
3057.00,99.85
3056.00,99.85
3055.00,99.85
3054.00,99.85
3053.00,99.85
3052.00,99.86
3051.00,99.86
3050.00,99.86
3049.00,99.86
3048.00,99.86
3047.00,99.86
3046.00,99.86
3045.00,99.86
3044.00,99.87
3043.00,99.87
3042.00,99.86
3041.00,99.86
3040.00,99.86
3039.00,99.86
3038.00,99.86
3037.00,99.87
3036.00,99.87
3035.00,99.87
3034.00,99.87
3033.00,99.87
3032.00,99.87
3031.00,99.86
3030.00,99.86
3029.00,99.86
3028.00,99.86
3027.00,99.86
3026.00,99.87
3025.00,99.87
3024.00,99.87
3023.00,99.86
3022.00,99.86
3021.00,99.86
3020.00,99.87
3019.00,99.87
3018.00,99.88
3017.00,99.88
3016.00,99.88
3015.00,99.88
3014.00,99.88
3013.00,99.87
3012.00,99.87
3011.00,99.87
3010.00,99.87
3009.00,99.87
3008.00,99.87
3007.00,99.87
3006.00,99.87
3005.00,99.87
3004.00,99.87
3003.00,99.88
3002.00,99.88
3001.00,99.88
3000.00,99.88
2999.00,99.88
2998.00,99.88
2997.00,99.87
2996.00,99.87
2995.00,99.87
2994.00,99.87
2993.00,99.87
2992.00,99.87
2991.00,99.87
2990.00,99.87
2989.00,99.86
2988.00,99.86
2987.00,99.86
2986.00,99.86
2985.00,99.85
2984.00,99.85
2983.00,99.85
2982.00,99.86
2981.00,99.85
2980.00,99.85
2979.00,99.85
2978.00,99.85
2977.00,99.85
2976.00,99.85
2975.00,99.85
2974.00,99.85
2973.00,99.85
2972.00,99.85
2971.00,99.85
2970.00,99.85
2969.00,99.85
2968.00,99.85
2967.00,99.85
2966.00,99.85
2965.00,99.85
2964.00,99.84
2963.00,99.84
2962.00,99.84
2961.00,99.84
2960.00,99.84
2959.00,99.84
2958.00,99.84
2957.00,99.84
2956.00,99.84
2955.00,99.84
2954.00,99.84
2953.00,99.84
2952.00,99.84
2951.00,99.84
2950.00,99.84
2949.00,99.84
2948.00,99.84
2947.00,99.84
2946.00,99.84
2945.00,99.84
2944.00,99.84
2943.00,99.84
2942.00,99.84
2941.00,99.84
2940.00,99.84
2939.00,99.84
2938.00,99.84
2937.00,99.84
2936.00,99.84
2935.00,99.84
2934.00,99.84
2933.00,99.84
2932.00,99.85
2931.00,99.85
2930.00,99.86
2929.00,99.86
2928.00,99.86
2927.00,99.86
2926.00,99.86
2925.00,99.86
2924.00,99.86
2923.00,99.86
2922.00,99.86
2921.00,99.86
2920.00,99.86
2919.00,99.86
2918.00,99.86
2917.00,99.86
2916.00,99.86
2915.00,99.86
2914.00,99.86
2913.00,99.86
2912.00,99.86
2911.00,99.86
2910.00,99.86
2909.00,99.86
2908.00,99.86
2907.00,99.86
2906.00,99.86
2905.00,99.87
2904.00,99.87
2903.00,99.87
2902.00,99.87
2901.00,99.87
2900.00,99.87
2899.00,99.87
2898.00,99.88
2897.00,99.88
2896.00,99.88
2895.00,99.87
2894.00,99.87
2893.00,99.87
2892.00,99.87
2891.00,99.87
2890.00,99.87
2889.00,99.87
2888.00,99.87
2887.00,99.87
2886.00,99.87
2885.00,99.87
2884.00,99.87
2883.00,99.87
2882.00,99.87
2881.00,99.87
2880.00,99.86
2879.00,99.86
2878.00,99.86
2877.00,99.86
2876.00,99.87
2875.00,99.87
2874.00,99.87
2873.00,99.88
2872.00,99.88
2871.00,99.88
2870.00,99.88
2869.00,99.88
2868.00,99.88
2867.00,99.88
2866.00,99.88
2865.00,99.88
2864.00,99.88
2863.00,99.88
2862.00,99.88
2861.00,99.88
2860.00,99.88
2859.00,99.88
2858.00,99.89
2857.00,99.89
2856.00,99.89
2855.00,99.89
2854.00,99.88
2853.00,99.89
2852.00,99.89
2851.00,99.89
2850.00,99.89
2849.00,99.89
2848.00,99.89
2847.00,99.89
2846.00,99.89
2845.00,99.89
2844.00,99.89
2843.00,99.89
2842.00,99.89
2841.00,99.89
2840.00,99.89
2839.00,99.90
2838.00,99.90
2837.00,99.90
2836.00,99.90
2835.00,99.90
2834.00,99.90
2833.00,99.90
2832.00,99.90
2831.00,99.90
2830.00,99.90
2829.00,99.90
2828.00,99.90
2827.00,99.90
2826.00,99.90
2825.00,99.90
2824.00,99.90
2823.00,99.90
2822.00,99.90
2821.00,99.90
2820.00,99.89
2819.00,99.89
2818.00,99.89
2817.00,99.90
2816.00,99.90
2815.00,99.90
2814.00,99.90
2813.00,99.90
2812.00,99.90
2811.00,99.90
2810.00,99.90
2809.00,99.90
2808.00,99.90
2807.00,99.90
2806.00,99.90
2805.00,99.90
2804.00,99.90
2803.00,99.89
2802.00,99.89
2801.00,99.89
2800.00,99.90
2799.00,99.90
2798.00,99.90
2797.00,99.90
2796.00,99.90
2795.00,99.90
2794.00,99.90
2793.00,99.90
2792.00,99.90
2791.00,99.90
2790.00,99.90
2789.00,99.90
2788.00,99.90
2787.00,99.90
2786.00,99.90
2785.00,99.90
2784.00,99.90
2783.00,99.90
2782.00,99.90
2781.00,99.90
2780.00,99.90
2779.00,99.90
2778.00,99.90
2777.00,99.90
2776.00,99.90
2775.00,99.90
2774.00,99.90
2773.00,99.90
2772.00,99.90
2771.00,99.90
2770.00,99.90
2769.00,99.90
2768.00,99.90
2767.00,99.90
2766.00,99.90
2765.00,99.90
2764.00,99.90
2763.00,99.90
2762.00,99.90
2761.00,99.90
2760.00,99.90
2759.00,99.90
2758.00,99.90
2757.00,99.90
2756.00,99.90
2755.00,99.90
2754.00,99.90
2753.00,99.90
2752.00,99.90
2751.00,99.90
2750.00,99.90
2749.00,99.90
2748.00,99.90
2747.00,99.90
2746.00,99.90
2745.00,99.91
2744.00,99.91
2743.00,99.91
2742.00,99.91
2741.00,99.90
2740.00,99.90
2739.00,99.90
2738.00,99.90
2737.00,99.90
2736.00,99.90
2735.00,99.90
2734.00,99.90
2733.00,99.90
2732.00,99.90
2731.00,99.90
2730.00,99.90
2729.00,99.90
2728.00,99.90
2727.00,99.90
2726.00,99.91
2725.00,99.91
2724.00,99.91
2723.00,99.91
2722.00,99.91
2721.00,99.91
2720.00,99.91
2719.00,99.91
2718.00,99.90
2717.00,99.91
2716.00,99.91
2715.00,99.91
2714.00,99.91
2713.00,99.91
2712.00,99.91
2711.00,99.91
2710.00,99.91
2709.00,99.91
2708.00,99.91
2707.00,99.91
2706.00,99.91
2705.00,99.90
2704.00,99.90
2703.00,99.90
2702.00,99.91
2701.00,99.91
2700.00,99.91
2699.00,99.91
2698.00,99.91
2697.00,99.90
2696.00,99.90
2695.00,99.90
2694.00,99.91
2693.00,99.91
2692.00,99.91
2691.00,99.91
2690.00,99.91
2689.00,99.91
2688.00,99.90
2687.00,99.90
2686.00,99.90
2685.00,99.90
2684.00,99.90
2683.00,99.90
2682.00,99.90
2681.00,99.91
2680.00,99.91
2679.00,99.90
2678.00,99.90
2677.00,99.90
2676.00,99.90
2675.00,99.91
2674.00,99.91
2673.00,99.91
2672.00,99.91
2671.00,99.91
2670.00,99.91
2669.00,99.91
2668.00,99.90
2667.00,99.90
2666.00,99.90
2665.00,99.90
2664.00,99.90
2663.00,99.90
2662.00,99.90
2661.00,99.90
2660.00,99.90
2659.00,99.90
2658.00,99.90
2657.00,99.90
2656.00,99.90
2655.00,99.90
2654.00,99.90
2653.00,99.90
2652.00,99.89
2651.00,99.89
2650.00,99.89
2649.00,99.89
2648.00,99.89
2647.00,99.89
2646.00,99.89
2645.00,99.89
2644.00,99.89
2643.00,99.89
2642.00,99.89
2641.00,99.89
2640.00,99.89
2639.00,99.89
2638.00,99.89
2637.00,99.89
2636.00,99.89
2635.00,99.89
2634.00,99.89
2633.00,99.89
2632.00,99.89
2631.00,99.89
2630.00,99.89
2629.00,99.90
2628.00,99.90
2627.00,99.90
2626.00,99.90
2625.00,99.90
2624.00,99.90
2623.00,99.90
2622.00,99.89
2621.00,99.89
2620.00,99.89
2619.00,99.89
2618.00,99.89
2617.00,99.89
2616.00,99.89
2615.00,99.89
2614.00,99.90
2613.00,99.90
2612.00,99.90
2611.00,99.89
2610.00,99.89
2609.00,99.89
2608.00,99.88
2607.00,99.88
2606.00,99.88
2605.00,99.89
2604.00,99.89
2603.00,99.89
2602.00,99.88
2601.00,99.88
2600.00,99.89
2599.00,99.89
2598.00,99.89
2597.00,99.89
2596.00,99.89
2595.00,99.89
2594.00,99.89
2593.00,99.89
2592.00,99.90
2591.00,99.90
2590.00,99.89
2589.00,99.89
2588.00,99.89
2587.00,99.88
2586.00,99.88
2585.00,99.88
2584.00,99.88
2583.00,99.89
2582.00,99.89
2581.00,99.89
2580.00,99.89
2579.00,99.89
2578.00,99.89
2577.00,99.89
2576.00,99.89
2575.00,99.88
2574.00,99.88
2573.00,99.88
2572.00,99.88
2571.00,99.88
2570.00,99.89
2569.00,99.89
2568.00,99.89
2567.00,99.89
2566.00,99.89
2565.00,99.88
2564.00,99.88
2563.00,99.88
2562.00,99.88
2561.00,99.88
2560.00,99.88
2559.00,99.88
2558.00,99.88
2557.00,99.88
2556.00,99.88
2555.00,99.88
2554.00,99.88
2553.00,99.88
2552.00,99.89
2551.00,99.89
2550.00,99.89
2549.00,99.89
2548.00,99.89
2547.00,99.89
2546.00,99.89
2545.00,99.89
2544.00,99.89
2543.00,99.89
2542.00,99.89
2541.00,99.89
2540.00,99.89
2539.00,99.89
2538.00,99.89
2537.00,99.89
2536.00,99.89
2535.00,99.89
2534.00,99.89
2533.00,99.89
2532.00,99.88
2531.00,99.88
2530.00,99.88
2529.00,99.88
2528.00,99.88
2527.00,99.88
2526.00,99.88
2525.00,99.88
2524.00,99.89
2523.00,99.89
2522.00,99.89
2521.00,99.89
2520.00,99.89
2519.00,99.89
2518.00,99.89
2517.00,99.89
2516.00,99.89
2515.00,99.89
2514.00,99.89
2513.00,99.89
2512.00,99.88
2511.00,99.88
2510.00,99.88
2509.00,99.88
2508.00,99.88
2507.00,99.88
2506.00,99.88
2505.00,99.88
2504.00,99.88
2503.00,99.89
2502.00,99.89
2501.00,99.89
2500.00,99.88
2499.00,99.88
2498.00,99.87
2497.00,99.88
2496.00,99.88
2495.00,99.88
2494.00,99.89
2493.00,99.89
2492.00,99.89
2491.00,99.89
2490.00,99.89
2489.00,99.88
2488.00,99.88
2487.00,99.88
2486.00,99.88
2485.00,99.89
2484.00,99.88
2483.00,99.88
2482.00,99.88
2481.00,99.88
2480.00,99.88
2479.00,99.88
2478.00,99.88
2477.00,99.89
2476.00,99.89
2475.00,99.88
2474.00,99.88
2473.00,99.88
2472.00,99.88
2471.00,99.88
2470.00,99.88
2469.00,99.89
2468.00,99.89
2467.00,99.89
2466.00,99.89
2465.00,99.89
2464.00,99.89
2463.00,99.88
2462.00,99.88
2461.00,99.88
2460.00,99.88
2459.00,99.88
2458.00,99.88
2457.00,99.88
2456.00,99.88
2455.00,99.88
2454.00,99.88
2453.00,99.88
2452.00,99.88
2451.00,99.88
2450.00,99.88
2449.00,99.88
2448.00,99.88
2447.00,99.88
2446.00,99.87
2445.00,99.87
2444.00,99.87
2443.00,99.87
2442.00,99.87
2441.00,99.87
2440.00,99.87
2439.00,99.88
2438.00,99.88
2437.00,99.88
2436.00,99.88
2435.00,99.88
2434.00,99.88
2433.00,99.88
2432.00,99.88
2431.00,99.88
2430.00,99.89
2429.00,99.89
2428.00,99.88
2427.00,99.88
2426.00,99.88
2425.00,99.88
2424.00,99.88
2423.00,99.88
2422.00,99.88
2421.00,99.88
2420.00,99.88
2419.00,99.88
2418.00,99.88
2417.00,99.88
2416.00,99.88
2415.00,99.88
2414.00,99.88
2413.00,99.87
2412.00,99.87
2411.00,99.87
2410.00,99.87
2409.00,99.88
2408.00,99.88
2407.00,99.88
2406.00,99.88
2405.00,99.88
2404.00,99.88
2403.00,99.88
2402.00,99.88
2401.00,99.87
2400.00,99.87
2399.00,99.87
2398.00,99.87
2397.00,99.87
2396.00,99.87
2395.00,99.87
2394.00,99.88
2393.00,99.88
2392.00,99.88
2391.00,99.88
2390.00,99.88
2389.00,99.88
2388.00,99.88
2387.00,99.88
2386.00,99.88
2385.00,99.89
2384.00,99.89
2383.00,99.90
2382.00,99.90
2381.00,99.90
2380.00,99.91
2379.00,99.91
2378.00,99.91
2377.00,99.91
2376.00,99.91
2375.00,99.90
2374.00,99.89
2373.00,99.89
2372.00,99.89
2371.00,99.89
2370.00,99.89
2369.00,99.90
2368.00,99.90
2367.00,99.89
2366.00,99.89
2365.00,99.88
2364.00,99.88
2363.00,99.89
2362.00,99.89
2361.00,99.89
2360.00,99.90
2359.00,99.90
2358.00,99.90
2357.00,99.89
2356.00,99.88
2355.00,99.86
2354.00,99.85
2353.00,99.86
2352.00,99.86
2351.00,99.87
2350.00,99.87
2349.00,99.87
2348.00,99.88
2347.00,99.89
2346.00,99.90
2345.00,99.91
2344.00,99.91
2343.00,99.90
2342.00,99.89
2341.00,99.88
2340.00,99.88
2339.00,99.87
2338.00,99.87
2337.00,99.87
2336.00,99.87
2335.00,99.87
2334.00,99.88
2333.00,99.88
2332.00,99.88
2331.00,99.88
2330.00,99.88
2329.00,99.87
2328.00,99.86
2327.00,99.85
2326.00,99.85
2325.00,99.85
2324.00,99.85
2323.00,99.85
2322.00,99.85
2321.00,99.85
2320.00,99.85
2319.00,99.85
2318.00,99.85
2317.00,99.85
2316.00,99.84
2315.00,99.84
2314.00,99.84
2313.00,99.85
2312.00,99.85
2311.00,99.85
2310.00,99.85
2309.00,99.85
2308.00,99.85
2307.00,99.85
2306.00,99.85
2305.00,99.85
2304.00,99.84
2303.00,99.84
2302.00,99.84
2301.00,99.84
2300.00,99.84
2299.00,99.84
2298.00,99.84
2297.00,99.84
2296.00,99.85
2295.00,99.85
2294.00,99.86
2293.00,99.86
2292.00,99.86
2291.00,99.86
2290.00,99.85
2289.00,99.85
2288.00,99.85
2287.00,99.85
2286.00,99.84
2285.00,99.84
2284.00,99.84
2283.00,99.84
2282.00,99.84
2281.00,99.85
2280.00,99.85
2279.00,99.85
2278.00,99.85
2277.00,99.85
2276.00,99.85
2275.00,99.85
2274.00,99.85
2273.00,99.84
2272.00,99.84
2271.00,99.83
2270.00,99.83
2269.00,99.84
2268.00,99.84
2267.00,99.84
2266.00,99.84
2265.00,99.84
2264.00,99.84
2263.00,99.84
2262.00,99.84
2261.00,99.84
2260.00,99.84
2259.00,99.84
2258.00,99.84
2257.00,99.84
2256.00,99.84
2255.00,99.84
2254.00,99.84
2253.00,99.84
2252.00,99.84
2251.00,99.84
2250.00,99.84
2249.00,99.84
2248.00,99.84
2247.00,99.84
2246.00,99.83
2245.00,99.83
2244.00,99.83
2243.00,99.83
2242.00,99.83
2241.00,99.84
2240.00,99.84
2239.00,99.83
2238.00,99.83
2237.00,99.83
2236.00,99.83
2235.00,99.84
2234.00,99.85
2233.00,99.85
2232.00,99.84
2231.00,99.83
2230.00,99.83
2229.00,99.83
2228.00,99.84
2227.00,99.83
2226.00,99.83
2225.00,99.83
2224.00,99.82
2223.00,99.82
2222.00,99.82
2221.00,99.82
2220.00,99.83
2219.00,99.83
2218.00,99.83
2217.00,99.83
2216.00,99.82
2215.00,99.81
2214.00,99.81
2213.00,99.80
2212.00,99.81
2211.00,99.82
2210.00,99.82
2209.00,99.82
2208.00,99.82
2207.00,99.82
2206.00,99.82
2205.00,99.82
2204.00,99.81
2203.00,99.81
2202.00,99.81
2201.00,99.82
2200.00,99.83
2199.00,99.83
2198.00,99.83
2197.00,99.83
2196.00,99.83
2195.00,99.83
2194.00,99.83
2193.00,99.82
2192.00,99.82
2191.00,99.83
2190.00,99.83
2189.00,99.84
2188.00,99.84
2187.00,99.82
2186.00,99.81
2185.00,99.81
2184.00,99.82
2183.00,99.83
2182.00,99.84
2181.00,99.84
2180.00,99.84
2179.00,99.83
2178.00,99.81
2177.00,99.80
2176.00,99.79
2175.00,99.80
2174.00,99.81
2173.00,99.82
2172.00,99.83
2171.00,99.83
2170.00,99.84
2169.00,99.83
2168.00,99.82
2167.00,99.82
2166.00,99.81
2165.00,99.80
2164.00,99.79
2163.00,99.78
2162.00,99.78
2161.00,99.78
2160.00,99.79
2159.00,99.80
2158.00,99.80
2157.00,99.81
2156.00,99.82
2155.00,99.83
2154.00,99.83
2153.00,99.83
2152.00,99.83
2151.00,99.82
2150.00,99.82
2149.00,99.82
2148.00,99.82
2147.00,99.82
2146.00,99.82
2145.00,99.83
2144.00,99.83
2143.00,99.84
2142.00,99.85
2141.00,99.85
2140.00,99.84
2139.00,99.84
2138.00,99.84
2137.00,99.84
2136.00,99.84
2135.00,99.84
2134.00,99.84
2133.00,99.83
2132.00,99.83
2131.00,99.82
2130.00,99.82
2129.00,99.83
2128.00,99.83
2127.00,99.83
2126.00,99.83
2125.00,99.83
2124.00,99.82
2123.00,99.82
2122.00,99.82
2121.00,99.81
2120.00,99.81
2119.00,99.80
2118.00,99.81
2117.00,99.81
2116.00,99.82
2115.00,99.82
2114.00,99.82
2113.00,99.82
2112.00,99.82
2111.00,99.82
2110.00,99.82
2109.00,99.82
2108.00,99.82
2107.00,99.82
2106.00,99.81
2105.00,99.81
2104.00,99.80
2103.00,99.80
2102.00,99.81
2101.00,99.81
2100.00,99.81
2099.00,99.81
2098.00,99.81
2097.00,99.80
2096.00,99.80
2095.00,99.81
2094.00,99.81
2093.00,99.81
2092.00,99.81
2091.00,99.81
2090.00,99.81
2089.00,99.81
2088.00,99.81
2087.00,99.81
2086.00,99.81
2085.00,99.81
2084.00,99.80
2083.00,99.80
2082.00,99.81
2081.00,99.81
2080.00,99.81
2079.00,99.81
2078.00,99.81
2077.00,99.82
2076.00,99.83
2075.00,99.83
2074.00,99.83
2073.00,99.83
2072.00,99.82
2071.00,99.81
2070.00,99.80
2069.00,99.80
2068.00,99.80
2067.00,99.80
2066.00,99.80
2065.00,99.81
2064.00,99.81
2063.00,99.81
2062.00,99.81
2061.00,99.81
2060.00,99.81
2059.00,99.80
2058.00,99.79
2057.00,99.79
2056.00,99.79
2055.00,99.79
2054.00,99.79
2053.00,99.80
2052.00,99.80
2051.00,99.80
2050.00,99.80
2049.00,99.79
2048.00,99.79
2047.00,99.80
2046.00,99.79
2045.00,99.79
2044.00,99.78
2043.00,99.78
2042.00,99.77
2041.00,99.77
2040.00,99.77
2039.00,99.77
2038.00,99.78
2037.00,99.78
2036.00,99.77
2035.00,99.77
2034.00,99.77
2033.00,99.77
2032.00,99.78
2031.00,99.78
2030.00,99.78
2029.00,99.78
2028.00,99.78
2027.00,99.78
2026.00,99.79
2025.00,99.79
2024.00,99.79
2023.00,99.79
2022.00,99.79
2021.00,99.79
2020.00,99.79
2019.00,99.78
2018.00,99.77
2017.00,99.76
2016.00,99.76
2015.00,99.75
2014.00,99.75
2013.00,99.75
2012.00,99.75
2011.00,99.75
2010.00,99.75
2009.00,99.76
2008.00,99.76
2007.00,99.77
2006.00,99.77
2005.00,99.77
2004.00,99.77
2003.00,99.77
2002.00,99.77
2001.00,99.78
2000.00,99.80
1999.00,99.80
1998.00,99.79
1997.00,99.78
1996.00,99.77
1995.00,99.76
1994.00,99.76
1993.00,99.77
1992.00,99.77
1991.00,99.77
1990.00,99.77
1989.00,99.78
1988.00,99.78
1987.00,99.78
1986.00,99.77
1985.00,99.77
1984.00,99.76
1983.00,99.76
1982.00,99.76
1981.00,99.76
1980.00,99.76
1979.00,99.77
1978.00,99.77
1977.00,99.77
1976.00,99.78
1975.00,99.79
1974.00,99.79
1973.00,99.78
1972.00,99.77
1971.00,99.77
1970.00,99.77
1969.00,99.77
1968.00,99.77
1967.00,99.77
1966.00,99.77
1965.00,99.77
1964.00,99.76
1963.00,99.76
1962.00,99.77
1961.00,99.78
1960.00,99.79
1959.00,99.79
1958.00,99.79
1957.00,99.79
1956.00,99.78
1955.00,99.78
1954.00,99.78
1953.00,99.79
1952.00,99.79
1951.00,99.79
1950.00,99.79
1949.00,99.79
1948.00,99.79
1947.00,99.78
1946.00,99.78
1945.00,99.78
1944.00,99.78
1943.00,99.78
1942.00,99.78
1941.00,99.78
1940.00,99.77
1939.00,99.77
1938.00,99.77
1937.00,99.78
1936.00,99.79
1935.00,99.79
1934.00,99.79
1933.00,99.79
1932.00,99.79
1931.00,99.79
1930.00,99.79
1929.00,99.78
1928.00,99.78
1927.00,99.78
1926.00,99.79
1925.00,99.79
1924.00,99.79
1923.00,99.78
1922.00,99.78
1921.00,99.78
1920.00,99.78
1919.00,99.78
1918.00,99.78
1917.00,99.79
1916.00,99.79
1915.00,99.78
1914.00,99.78
1913.00,99.77
1912.00,99.78
1911.00,99.78
1910.00,99.79
1909.00,99.79
1908.00,99.79
1907.00,99.79
1906.00,99.79
1905.00,99.78
1904.00,99.78
1903.00,99.77
1902.00,99.77
1901.00,99.77
1900.00,99.77
1899.00,99.77
1898.00,99.77
1897.00,99.78
1896.00,99.78
1895.00,99.78
1894.00,99.78
1893.00,99.79
1892.00,99.79
1891.00,99.78
1890.00,99.78
1889.00,99.77
1888.00,99.78
1887.00,99.78
1886.00,99.79
1885.00,99.79
1884.00,99.79
1883.00,99.78
1882.00,99.78
1881.00,99.78
1880.00,99.78
1879.00,99.78
1878.00,99.78
1877.00,99.78
1876.00,99.78
1875.00,99.78
1874.00,99.78
1873.00,99.79
1872.00,99.79
1871.00,99.79
1870.00,99.79
1869.00,99.79
1868.00,99.79
1867.00,99.78
1866.00,99.78
1865.00,99.78
1864.00,99.77
1863.00,99.78
1862.00,99.78
1861.00,99.79
1860.00,99.79
1859.00,99.79
1858.00,99.79
1857.00,99.79
1856.00,99.78
1855.00,99.78
1854.00,99.78
1853.00,99.78
1852.00,99.78
1851.00,99.78
1850.00,99.78
1849.00,99.78
1848.00,99.78
1847.00,99.79
1846.00,99.79
1845.00,99.79
1844.00,99.78
1843.00,99.78
1842.00,99.78
1841.00,99.78
1840.00,99.78
1839.00,99.78
1838.00,99.78
1837.00,99.79
1836.00,99.78
1835.00,99.78
1834.00,99.79
1833.00,99.79
1832.00,99.79
1831.00,99.80
1830.00,99.80
1829.00,99.80
1828.00,99.79
1827.00,99.79
1826.00,99.78
1825.00,99.78
1824.00,99.79
1823.00,99.79
1822.00,99.79
1821.00,99.78
1820.00,99.78
1819.00,99.79
1818.00,99.79
1817.00,99.79
1816.00,99.79
1815.00,99.79
1814.00,99.79
1813.00,99.79
1812.00,99.79
1811.00,99.78
1810.00,99.78
1809.00,99.79
1808.00,99.79
1807.00,99.79
1806.00,99.79
1805.00,99.79
1804.00,99.79
1803.00,99.79
1802.00,99.79
1801.00,99.79
1800.00,99.79
1799.00,99.79
1798.00,99.79
1797.00,99.79
1796.00,99.79
1795.00,99.78
1794.00,99.78
1793.00,99.78
1792.00,99.78
1791.00,99.78
1790.00,99.78
1789.00,99.79
1788.00,99.79
1787.00,99.79
1786.00,99.79
1785.00,99.80
1784.00,99.80
1783.00,99.80
1782.00,99.79
1781.00,99.79
1780.00,99.79
1779.00,99.79
1778.00,99.79
1777.00,99.79
1776.00,99.80
1775.00,99.80
1774.00,99.80
1773.00,99.80
1772.00,99.80
1771.00,99.80
1770.00,99.79
1769.00,99.79
1768.00,99.78
1767.00,99.79
1766.00,99.79
1765.00,99.80
1764.00,99.79
1763.00,99.79
1762.00,99.79
1761.00,99.79
1760.00,99.79
1759.00,99.79
1758.00,99.78
1757.00,99.78
1756.00,99.79
1755.00,99.80
1754.00,99.80
1753.00,99.80
1752.00,99.80
1751.00,99.80
1750.00,99.80
1749.00,99.79
1748.00,99.78
1747.00,99.78
1746.00,99.78
1745.00,99.77
1744.00,99.77
1743.00,99.77
1742.00,99.77
1741.00,99.77
1740.00,99.77
1739.00,99.78
1738.00,99.79
1737.00,99.79
1736.00,99.78
1735.00,99.78
1734.00,99.79
1733.00,99.79
1732.00,99.79
1731.00,99.77
1730.00,99.76
1729.00,99.75
1728.00,99.75
1727.00,99.76
1726.00,99.76
1725.00,99.76
1724.00,99.76
1723.00,99.76
1722.00,99.76
1721.00,99.76
1720.00,99.75
1719.00,99.75
1718.00,99.75
1717.00,99.75
1716.00,99.74
1715.00,99.73
1714.00,99.72
1713.00,99.72
1712.00,99.72
1711.00,99.71
1710.00,99.71
1709.00,99.71
1708.00,99.70
1707.00,99.69
1706.00,99.68
1705.00,99.67
1704.00,99.66
1703.00,99.65
1702.00,99.64
1701.00,99.64
1700.00,99.63
1699.00,99.63
1698.00,99.61
1697.00,99.57
1696.00,99.54
1695.00,99.53
1694.00,99.54
1693.00,99.54
1692.00,99.52
1691.00,99.51
1690.00,99.50
1689.00,99.49
1688.00,99.48
1687.00,99.47
1686.00,99.45
1685.00,99.44
1684.00,99.42
1683.00,99.40
1682.00,99.39
1681.00,99.37
1680.00,99.36
1679.00,99.35
1678.00,99.34
1677.00,99.34
1676.00,99.33
1675.00,99.32
1674.00,99.31
1673.00,99.30
1672.00,99.28
1671.00,99.27
1670.00,99.25
1669.00,99.23
1668.00,99.21
1667.00,99.20
1666.00,99.20
1665.00,99.19
1664.00,99.18
1663.00,99.17
1662.00,99.15
1661.00,99.14
1660.00,99.12
1659.00,99.11
1658.00,99.11
1657.00,99.10
1656.00,99.11
1655.00,99.10
1654.00,99.09
1653.00,99.05
1652.00,99.03
1651.00,99.03
1650.00,99.02
1649.00,99.01
1648.00,98.99
1647.00,98.98
1646.00,98.96
1645.00,98.95
1644.00,98.95
1643.00,98.95
1642.00,98.95
1641.00,98.94
1640.00,98.94
1639.00,98.95
1638.00,98.95
1637.00,98.94
1636.00,98.93
1635.00,98.91
1634.00,98.91
1633.00,98.91
1632.00,98.91
1631.00,98.91
1630.00,98.91
1629.00,98.92
1628.00,98.92
1627.00,98.93
1626.00,98.94
1625.00,98.94
1624.00,98.95
1623.00,98.96
1622.00,98.97
1621.00,98.98
1620.00,98.99
1619.00,99.00
1618.00,99.01
1617.00,99.03
1616.00,99.05
1615.00,99.07
1614.00,99.09
1613.00,99.10
1612.00,99.11
1611.00,99.13
1610.00,99.14
1609.00,99.16
1608.00,99.17
1607.00,99.19
1606.00,99.20
1605.00,99.22
1604.00,99.23
1603.00,99.25
1602.00,99.26
1601.00,99.27
1600.00,99.29
1599.00,99.30
1598.00,99.31
1597.00,99.31
1596.00,99.32
1595.00,99.33
1594.00,99.33
1593.00,99.34
1592.00,99.34
1591.00,99.35
1590.00,99.35
1589.00,99.36
1588.00,99.36
1587.00,99.36
1586.00,99.37
1585.00,99.36
1584.00,99.37
1583.00,99.37
1582.00,99.36
1581.00,99.36
1580.00,99.36
1579.00,99.36
1578.00,99.36
1577.00,99.35
1576.00,99.34
1575.00,99.34
1574.00,99.34
1573.00,99.33
1572.00,99.32
1571.00,99.32
1570.00,99.31
1569.00,99.30
1568.00,99.29
1567.00,99.29
1566.00,99.28
1565.00,99.27
1564.00,99.27
1563.00,99.27
1562.00,99.26
1561.00,99.26
1560.00,99.27
1559.00,99.26
1558.00,99.22
1557.00,99.20
1556.00,99.19
1555.00,99.18
1554.00,99.17
1553.00,99.17
1552.00,99.17
1551.00,99.16
1550.00,99.14
1549.00,99.13
1548.00,99.13
1547.00,99.13
1546.00,99.13
1545.00,99.13
1544.00,99.13
1543.00,99.12
1542.00,99.11
1541.00,99.10
1540.00,99.06
1539.00,99.05
1538.00,99.06
1537.00,99.07
1536.00,99.07
1535.00,99.06
1534.00,99.06
1533.00,99.06
1532.00,99.05
1531.00,99.05
1530.00,99.05
1529.00,99.05
1528.00,99.06
1527.00,99.06
1526.00,99.05
1525.00,99.05
1524.00,99.05
1523.00,99.05
1522.00,99.04
1521.00,99.04
1520.00,99.04
1519.00,99.04
1518.00,99.05
1517.00,99.05
1516.00,99.05
1515.00,99.06
1514.00,99.07
1513.00,99.08
1512.00,99.09
1511.00,99.10
1510.00,99.11
1509.00,99.11
1508.00,99.12
1507.00,99.12
1506.00,99.13
1505.00,99.16
1504.00,99.19
1503.00,99.20
1502.00,99.21
1501.00,99.22
1500.00,99.23
1499.00,99.25
1498.00,99.26
1497.00,99.28
1496.00,99.29
1495.00,99.31
1494.00,99.32
1493.00,99.33
1492.00,99.34
1491.00,99.34
1490.00,99.35
1489.00,99.36
1488.00,99.36
1487.00,99.37
1486.00,99.38
1485.00,99.39
1484.00,99.40
1483.00,99.40
1482.00,99.40
1481.00,99.40
1480.00,99.41
1479.00,99.41
1478.00,99.40
1477.00,99.40
1476.00,99.40
1475.00,99.40
1474.00,99.39
1473.00,99.38
1472.00,99.37
1471.00,99.37
1470.00,99.37
1469.00,99.37
1468.00,99.36
1467.00,99.36
1466.00,99.35
1465.00,99.35
1464.00,99.34
1463.00,99.33
1462.00,99.33
1461.00,99.32
1460.00,99.32
1459.00,99.32
1458.00,99.31
1457.00,99.28
1456.00,99.26
1455.00,99.26
1454.00,99.25
1453.00,99.25
1452.00,99.24
1451.00,99.24
1450.00,99.24
1449.00,99.23
1448.00,99.23
1447.00,99.23
1446.00,99.23
1445.00,99.23
1444.00,99.24
1443.00,99.24
1442.00,99.24
1441.00,99.24
1440.00,99.24
1439.00,99.25
1438.00,99.25
1437.00,99.25
1436.00,99.26
1435.00,99.26
1434.00,99.26
1433.00,99.27
1432.00,99.27
1431.00,99.28
1430.00,99.28
1429.00,99.29
1428.00,99.30
1427.00,99.30
1426.00,99.30
1425.00,99.30
1424.00,99.31
1423.00,99.31
1422.00,99.31
1421.00,99.31
1420.00,99.32
1419.00,99.32
1418.00,99.32
1417.00,99.32
1416.00,99.32
1415.00,99.32
1414.00,99.32
1413.00,99.32
1412.00,99.32
1411.00,99.32
1410.00,99.32
1409.00,99.32
1408.00,99.32
1407.00,99.32
1406.00,99.32
1405.00,99.32
1404.00,99.32
1403.00,99.32
1402.00,99.32
1401.00,99.32
1400.00,99.32
1399.00,99.32
1398.00,99.32
1397.00,99.32
1396.00,99.32
1395.00,99.32
1394.00,99.33
1393.00,99.33
1392.00,99.34
1391.00,99.34
1390.00,99.34
1389.00,99.35
1388.00,99.35
1387.00,99.35
1386.00,99.36
1385.00,99.36
1384.00,99.36
1383.00,99.37
1382.00,99.37
1381.00,99.37
1380.00,99.38
1379.00,99.38
1378.00,99.38
1377.00,99.38
1376.00,99.39
1375.00,99.39
1374.00,99.39
1373.00,99.39
1372.00,99.40
1371.00,99.40
1370.00,99.41
1369.00,99.41
1368.00,99.42
1367.00,99.42
1366.00,99.43
1365.00,99.43
1364.00,99.43
1363.00,99.43
1362.00,99.43
1361.00,99.43
1360.00,99.43
1359.00,99.44
1358.00,99.44
1357.00,99.44
1356.00,99.44
1355.00,99.44
1354.00,99.44
1353.00,99.43
1352.00,99.43
1351.00,99.43
1350.00,99.43
1349.00,99.42
1348.00,99.42
1347.00,99.41
1346.00,99.41
1345.00,99.41
1344.00,99.40
1343.00,99.40
1342.00,99.40
1341.00,99.39
1340.00,99.39
1339.00,99.38
1338.00,99.37
1337.00,99.37
1336.00,99.37
1335.00,99.37
1334.00,99.38
1333.00,99.38
1332.00,99.38
1331.00,99.38
1330.00,99.38
1329.00,99.38
1328.00,99.38
1327.00,99.38
1326.00,99.38
1325.00,99.39
1324.00,99.39
1323.00,99.39
1322.00,99.39
1321.00,99.39
1320.00,99.39
1319.00,99.39
1318.00,99.39
1317.00,99.39
1316.00,99.39
1315.00,99.40
1314.00,99.40
1313.00,99.40
1312.00,99.40
1311.00,99.40
1310.00,99.40
1309.00,99.41
1308.00,99.41
1307.00,99.41
1306.00,99.41
1305.00,99.42
1304.00,99.42
1303.00,99.42
1302.00,99.42
1301.00,99.42
1300.00,99.43
1299.00,99.43
1298.00,99.43
1297.00,99.43
1296.00,99.43
1295.00,99.43
1294.00,99.43
1293.00,99.43
1292.00,99.43
1291.00,99.43
1290.00,99.43
1289.00,99.42
1288.00,99.42
1287.00,99.42
1286.00,99.42
1285.00,99.42
1284.00,99.42
1283.00,99.41
1282.00,99.41
1281.00,99.40
1280.00,99.40
1279.00,99.40
1278.00,99.40
1277.00,99.40
1276.00,99.40
1275.00,99.40
1274.00,99.40
1273.00,99.40
1272.00,99.40
1271.00,99.40
1270.00,99.39
1269.00,99.39
1268.00,99.39
1267.00,99.39
1266.00,99.39
1265.00,99.38
1264.00,99.38
1263.00,99.38
1262.00,99.38
1261.00,99.38
1260.00,99.37
1259.00,99.37
1258.00,99.37
1257.00,99.36
1256.00,99.36
1255.00,99.36
1254.00,99.35
1253.00,99.35
1252.00,99.35
1251.00,99.35
1250.00,99.34
1249.00,99.34
1248.00,99.33
1247.00,99.33
1246.00,99.32
1245.00,99.32
1244.00,99.32
1243.00,99.31
1242.00,99.31
1241.00,99.31
1240.00,99.31
1239.00,99.30
1238.00,99.30
1237.00,99.30
1236.00,99.30
1235.00,99.30
1234.00,99.30
1233.00,99.30
1232.00,99.30
1231.00,99.30
1230.00,99.30
1229.00,99.30
1228.00,99.30
1227.00,99.30
1226.00,99.31
1225.00,99.31
1224.00,99.31
1223.00,99.32
1222.00,99.33
1221.00,99.34
1220.00,99.34
1219.00,99.35
1218.00,99.35
1217.00,99.36
1216.00,99.36
1215.00,99.36
1214.00,99.37
1213.00,99.37
1212.00,99.37
1211.00,99.37
1210.00,99.37
1209.00,99.37
1208.00,99.37
1207.00,99.37
1206.00,99.37
1205.00,99.37
1204.00,99.37
1203.00,99.37
1202.00,99.37
1201.00,99.37
1200.00,99.37
1199.00,99.37
1198.00,99.37
1197.00,99.37
1196.00,99.37
1195.00,99.38
1194.00,99.38
1193.00,99.38
1192.00,99.39
1191.00,99.39
1190.00,99.40
1189.00,99.40
1188.00,99.41
1187.00,99.41
1186.00,99.41
1185.00,99.42
1184.00,99.42
1183.00,99.42
1182.00,99.42
1181.00,99.42
1180.00,99.43
1179.00,99.43
1178.00,99.43
1177.00,99.42
1176.00,99.42
1175.00,99.42
1174.00,99.43
1173.00,99.43
1172.00,99.43
1171.00,99.43
1170.00,99.42
1169.00,99.42
1168.00,99.42
1167.00,99.42
1166.00,99.42
1165.00,99.42
1164.00,99.42
1163.00,99.42
1162.00,99.41
1161.00,99.41
1160.00,99.41
1159.00,99.41
1158.00,99.41
1157.00,99.42
1156.00,99.42
1155.00,99.42
1154.00,99.42
1153.00,99.42
1152.00,99.43
1151.00,99.43
1150.00,99.44
1149.00,99.44
1148.00,99.44
1147.00,99.44
1146.00,99.44
1145.00,99.44
1144.00,99.44
1143.00,99.45
1142.00,99.45
1141.00,99.45
1140.00,99.45
1139.00,99.45
1138.00,99.45
1137.00,99.45
1136.00,99.45
1135.00,99.45
1134.00,99.44
1133.00,99.44
1132.00,99.44
1131.00,99.44
1130.00,99.44
1129.00,99.44
1128.00,99.44
1127.00,99.44
1126.00,99.44
1125.00,99.44
1124.00,99.44
1123.00,99.44
1122.00,99.43
1121.00,99.43
1120.00,99.43
1119.00,99.43
1118.00,99.43
1117.00,99.42
1116.00,99.42
1115.00,99.42
1114.00,99.42
1113.00,99.42
1112.00,99.41
1111.00,99.41
1110.00,99.41
1109.00,99.40
1108.00,99.40
1107.00,99.40
1106.00,99.39
1105.00,99.39
1104.00,99.39
1103.00,99.38
1102.00,99.38
1101.00,99.38
1100.00,99.38
1099.00,99.37
1098.00,99.37
1097.00,99.37
1096.00,99.37
1095.00,99.36
1094.00,99.36
1093.00,99.36
1092.00,99.36
1091.00,99.36
1090.00,99.35
1089.00,99.34
1088.00,99.34
1087.00,99.34
1086.00,99.33
1085.00,99.33
1084.00,99.32
1083.00,99.32
1082.00,99.32
1081.00,99.32
1080.00,99.32
1079.00,99.32
1078.00,99.32
1077.00,99.32
1076.00,99.32
1075.00,99.33
1074.00,99.33
1073.00,99.34
1072.00,99.34
1071.00,99.34
1070.00,99.34
1069.00,99.34
1068.00,99.34
1067.00,99.35
1066.00,99.34
1065.00,99.34
1064.00,99.34
1063.00,99.34
1062.00,99.35
1061.00,99.35
1060.00,99.35
1059.00,99.36
1058.00,99.36
1057.00,99.36
1056.00,99.37
1055.00,99.37
1054.00,99.37
1053.00,99.37
1052.00,99.37
1051.00,99.37
1050.00,99.37
1049.00,99.38
1048.00,99.38
1047.00,99.39
1046.00,99.39
1045.00,99.39
1044.00,99.39
1043.00,99.40
1042.00,99.40
1041.00,99.40
1040.00,99.40
1039.00,99.40
1038.00,99.40
1037.00,99.40
1036.00,99.39
1035.00,99.39
1034.00,99.39
1033.00,99.39
1032.00,99.39
1031.00,99.38
1030.00,99.38
1029.00,99.39
1028.00,99.39
1027.00,99.39
1026.00,99.40
1025.00,99.40
1024.00,99.40
1023.00,99.40
1022.00,99.41
1021.00,99.41
1020.00,99.42
1019.00,99.42
1018.00,99.42
1017.00,99.42
1016.00,99.42
1015.00,99.43
1014.00,99.43
1013.00,99.43
1012.00,99.44
1011.00,99.44
1010.00,99.44
1009.00,99.44
1008.00,99.45
1007.00,99.45
1006.00,99.45
1005.00,99.45
1004.00,99.46
1003.00,99.46
1002.00,99.46
1001.00,99.47
1000.00,99.47
999.00,99.47
998.00,99.47
997.00,99.47
996.00,99.48
995.00,99.48
994.00,99.48
993.00,99.48
992.00,99.48
991.00,99.48
990.00,99.48
989.00,99.48
988.00,99.49
987.00,99.49
986.00,99.49
985.00,99.48
984.00,99.48
983.00,99.48
982.00,99.48
981.00,99.48
980.00,99.48
979.00,99.48
978.00,99.48
977.00,99.49
976.00,99.48
975.00,99.48
974.00,99.48
973.00,99.48
972.00,99.48
971.00,99.48
970.00,99.49
969.00,99.49
968.00,99.49
967.00,99.49
966.00,99.49
965.00,99.49
964.00,99.49
963.00,99.49
962.00,99.49
961.00,99.49
960.00,99.50
959.00,99.50
958.00,99.51
957.00,99.51
956.00,99.51
955.00,99.51
954.00,99.51
953.00,99.51
952.00,99.51
951.00,99.51
950.00,99.51
949.00,99.51
948.00,99.51
947.00,99.51
946.00,99.51
945.00,99.51
944.00,99.51
943.00,99.51
942.00,99.50
941.00,99.50
940.00,99.50
939.00,99.50
938.00,99.50
937.00,99.51
936.00,99.51
935.00,99.51
934.00,99.51
933.00,99.51
932.00,99.51
931.00,99.51
930.00,99.51
929.00,99.50
928.00,99.50
927.00,99.50
926.00,99.50
925.00,99.50
924.00,99.50
923.00,99.50
922.00,99.49
921.00,99.49
920.00,99.49
919.00,99.50
918.00,99.50
917.00,99.50
916.00,99.50
915.00,99.50
914.00,99.50
913.00,99.50
912.00,99.50
911.00,99.51
910.00,99.51
909.00,99.51
908.00,99.51
907.00,99.50
906.00,99.50
905.00,99.50
904.00,99.50
903.00,99.50
902.00,99.50
901.00,99.50
900.00,99.50
899.00,99.50
898.00,99.50
897.00,99.51
896.00,99.51
895.00,99.51
894.00,99.50
893.00,99.50
892.00,99.50
891.00,99.50
890.00,99.50
889.00,99.50
888.00,99.50
887.00,99.50
886.00,99.50
885.00,99.49
884.00,99.49
883.00,99.49
882.00,99.49
881.00,99.49
880.00,99.48
879.00,99.48
878.00,99.48
877.00,99.47
876.00,99.47
875.00,99.47
874.00,99.47
873.00,99.47
872.00,99.47
871.00,99.47
870.00,99.47
869.00,99.48
868.00,99.48
867.00,99.48
866.00,99.47
865.00,99.47
864.00,99.47
863.00,99.47
862.00,99.47
861.00,99.47
860.00,99.47
859.00,99.47
858.00,99.47
857.00,99.46
856.00,99.46
855.00,99.46
854.00,99.46
853.00,99.46
852.00,99.46
851.00,99.46
850.00,99.47
849.00,99.47
848.00,99.47
847.00,99.47
846.00,99.47
845.00,99.47
844.00,99.46
843.00,99.46
842.00,99.46
841.00,99.45
840.00,99.45
839.00,99.45
838.00,99.46
837.00,99.46
836.00,99.47
835.00,99.47
834.00,99.47
833.00,99.47
832.00,99.46
831.00,99.46
830.00,99.46
829.00,99.46
828.00,99.46
827.00,99.45
826.00,99.44
825.00,99.43
824.00,99.43
823.00,99.43
822.00,99.43
821.00,99.44
820.00,99.44
819.00,99.43
818.00,99.43
817.00,99.42
816.00,99.42
815.00,99.42
814.00,99.42
813.00,99.42
812.00,99.42
811.00,99.41
810.00,99.41
809.00,99.42
808.00,99.42
807.00,99.42
806.00,99.41
805.00,99.41
804.00,99.41
803.00,99.41
802.00,99.40
801.00,99.39
800.00,99.39
799.00,99.39
798.00,99.39
797.00,99.39
796.00,99.39
795.00,99.38
794.00,99.38
793.00,99.38
792.00,99.38
791.00,99.38
790.00,99.38
789.00,99.38
788.00,99.37
787.00,99.36
786.00,99.36
785.00,99.36
784.00,99.36
783.00,99.36
782.00,99.36
781.00,99.35
780.00,99.35
779.00,99.35
778.00,99.35
777.00,99.35
776.00,99.34
775.00,99.34
774.00,99.34
773.00,99.34
772.00,99.34
771.00,99.33
770.00,99.33
769.00,99.33
768.00,99.32
767.00,99.32
766.00,99.32
765.00,99.31
764.00,99.30
763.00,99.30
762.00,99.29
761.00,99.29
760.00,99.29
759.00,99.29
758.00,99.29
757.00,99.29
756.00,99.28
755.00,99.27
754.00,99.27
753.00,99.27
752.00,99.27
751.00,99.27
750.00,99.27
749.00,99.27
748.00,99.26
747.00,99.26
746.00,99.26
745.00,99.25
744.00,99.25
743.00,99.24
742.00,99.24
741.00,99.24
740.00,99.25
739.00,99.25
738.00,99.25
737.00,99.25
736.00,99.25
735.00,99.24
734.00,99.24
733.00,99.23
732.00,99.23
731.00,99.22
730.00,99.21
729.00,99.20
728.00,99.19
727.00,99.20
726.00,99.20
725.00,99.21
724.00,99.21
723.00,99.21
722.00,99.21
721.00,99.20
720.00,99.19
719.00,99.18
718.00,99.18
717.00,99.18
716.00,99.18
715.00,99.17
714.00,99.17
713.00,99.16
712.00,99.15
711.00,99.14
710.00,99.14
709.00,99.14
708.00,99.13
707.00,99.13
706.00,99.13
705.00,99.13
704.00,99.12
703.00,99.12
702.00,99.11
701.00,99.10
700.00,99.10
699.00,99.09
698.00,99.09
697.00,99.10
696.00,99.10
695.00,99.10
694.00,99.09
693.00,99.08
692.00,99.07
691.00,99.07
690.00,99.07
689.00,99.07
688.00,99.07
687.00,99.08
686.00,99.08
685.00,99.07
684.00,99.07
683.00,99.06
682.00,99.06
681.00,99.06
680.00,99.06
679.00,99.06
678.00,99.05
677.00,99.05
676.00,99.03
675.00,99.02
674.00,99.01
673.00,99.01
672.00,99.02
671.00,99.04
670.00,99.05
669.00,99.04
668.00,99.02
667.00,98.99
666.00,98.99
665.00,99.00
664.00,99.00
663.00,99.00
662.00,98.99
661.00,98.99
660.00,99.00
659.00,99.00
658.00,98.99
657.00,98.98
656.00,98.98
655.00,98.98
654.00,98.97
653.00,98.97
652.00,98.95
651.00,98.94
650.00,98.94
649.00,98.94
648.00,98.95
647.00,98.95
646.00,98.95
645.00,98.94
644.00,98.93
643.00,98.91
642.00,98.90
641.00,98.89
640.00,98.89
639.00,98.91
638.00,98.93
637.00,98.94
636.00,98.93
635.00,98.90
634.00,98.89
633.00,98.88
632.00,98.86
631.00,98.85
630.00,98.85
629.00,98.87
628.00,98.89
627.00,98.89
626.00,98.87
625.00,98.84
624.00,98.80
623.00,98.77
622.00,98.77
621.00,98.79
620.00,98.81
619.00,98.84
618.00,98.85
617.00,98.85
616.00,98.82
615.00,98.77
614.00,98.72
613.00,98.70
612.00,98.71
611.00,98.73
610.00,98.75
609.00,98.75
608.00,98.74
607.00,98.73
606.00,98.73
605.00,98.73
604.00,98.74
603.00,98.74
602.00,98.72
601.00,98.71
600.00,98.72
599.00,98.75
598.00,98.76
597.00,98.76
596.00,98.74
595.00,98.72
594.00,98.71
593.00,98.71
592.00,98.71
591.00,98.71
590.00,98.72
589.00,98.72
588.00,98.71
587.00,98.69
586.00,98.68
585.00,98.67
584.00,98.69
583.00,98.72
582.00,98.75
581.00,98.77
580.00,98.75
579.00,98.69
578.00,98.61
577.00,98.52
576.00,98.48
575.00,98.52
574.00,98.61
573.00,98.68
572.00,98.71
571.00,98.70
570.00,98.66
569.00,98.62
568.00,98.57
567.00,98.49
566.00,98.41
565.00,98.39
564.00,98.44
563.00,98.55
562.00,98.63
561.00,98.61
560.00,98.52
559.00,98.48
558.00,98.55
557.00,98.67
556.00,98.71
555.00,98.63
554.00,98.50
553.00,98.43
552.00,98.45
551.00,98.54
550.00,98.64
549.00,98.69
548.00,98.69
547.00,98.67
546.00,98.60
545.00,98.48
544.00,98.38
543.00,98.36
542.00,98.45
541.00,98.52
540.00,98.50
539.00,98.40
538.00,98.35
537.00,98.34
536.00,98.28
535.00,98.11
534.00,97.89
533.00,97.69
532.00,97.58
531.00,97.70
530.00,98.15
529.00,98.76
528.00,99.26
527.00,99.35
526.00,98.95
525.00,98.36
524.00,97.87
523.00,97.75
522.00,98.14
521.00,98.70
520.00,99.12
519.00,99.07
518.00,98.77
517.00,99.02
516.00,99.86
515.00,100.33
514.00,99.13
513.00,96.71
512.00,92.38
511.00,87.09
510.00,89.42
509.00,94.06
508.00,96.26
507.00,95.79
506.00,98.15
505.00,99.37
504.00,101.86
503.00,97.35
502.00,103.65
501.00,81.18
500.00,119.72
499.00,309.67
498.00,80.24
497.00,51.87
496.00,176.83
495.00,233.09
494.00,30.45
493.00,30.90
492.00,265.35
491.00,157.86
490.00,34.43
489.00,75.12
488.00,120.70
487.00,115.65
486.00,106.06
485.00,101.04
484.00,126.02
483.00,87.54
482.00,82.38
481.00,144.22
480.00,127.30
479.00,59.50
478.00,104.93
477.00,176.81
476.00,89.92
475.00,81.48
474.00,93.50
473.00,94.38
472.00,95.36
471.00,82.10
470.00,114.99
469.00,113.46
468.00,90.17
467.00,85.68
466.00,121.71
465.00,108.40
464.00,69.06
463.00,106.54
462.00,46.47
461.00,76.64
460.00,114.08
459.00,122.00
458.00,100.62
457.00,89.43
456.00,102.85
455.00,97.86
454.00,98.34
453.00,113.74
452.00,114.13
451.00,50.51
450.00,88.53
449.00,294.10
448.00,95.48
447.00,55.59
446.00,102.41
445.00,110.65
444.00,94.25
443.00,83.72
442.00,108.59
441.00,128.95
440.00,70.45
439.00,65.68
438.00,153.07
437.00,134.97
436.00,37.91
435.00,80.34
434.00,351.65
433.00,99.65
432.00,112.33
431.00,99.66
430.00,87.18
429.00,101.28
428.00,93.03
427.00,92.18
426.00,99.77
425.00,82.40
424.00,98.58
423.00,120.98
422.00,96.25
421.00,100.68
420.00,97.17
419.00,96.37
418.00,98.57
417.00,102.24
416.00,84.18
415.00,74.73
414.00,100.75
413.00,97.29
412.00,86.56
411.00,99.73
410.00,88.95
409.00,101.29
408.00,34.02
407.00,94.49
406.00,107.38
405.00,88.77
404.00,86.73
403.00,130.02
402.00,177.60
401.00,85.49
400.00,88.18
