Created as New Dataset,Sample 001 By FTIR User 2.0 Date Friday, April 12 2024
cm-1,%T
4000.00,100.55
3999.00,100.55
3998.00,100.55
3997.00,100.55
3996.00,100.55
3995.00,100.55
3994.00,100.55
3993.00,100.55
3992.00,100.55
3991.00,100.55
3990.00,100.55
3989.00,100.55
3988.00,100.56
3987.00,100.56
3986.00,100.56
3985.00,100.56
3984.00,100.56
3983.00,100.56
3982.00,100.56
3981.00,100.56
3980.00,100.56
3979.00,100.56
3978.00,100.56
3977.00,100.56
3976.00,100.56
3975.00,100.56
3974.00,100.56
3973.00,100.56
3972.00,100.56
3971.00,100.56
3970.00,100.56
3969.00,100.56
3968.00,100.56
3967.00,100.56
3966.00,100.56
3965.00,100.56
3964.00,100.56
3963.00,100.56
3962.00,100.56
3961.00,100.56
3960.00,100.55
3959.00,100.55
3958.00,100.55
3957.00,100.55
3956.00,100.55
3955.00,100.55
3954.00,100.55
3953.00,100.55
3952.00,100.55
3951.00,100.55
3950.00,100.55
3949.00,100.55
3948.00,100.55
3947.00,100.55
3946.00,100.55
3945.00,100.54
3944.00,100.54
3943.00,100.54
3942.00,100.54
3941.00,100.54
3940.00,100.55
3939.00,100.55
3938.00,100.55
3937.00,100.55
3936.00,100.55
3935.00,100.55
3934.00,100.55
3933.00,100.55
3932.00,100.55
3931.00,100.54
3930.00,100.54
3929.00,100.53
3928.00,100.53
3927.00,100.52
3926.00,100.52
3925.00,100.52
3924.00,100.52
3923.00,100.53
3922.00,100.53
3921.00,100.53
3920.00,100.53
3919.00,100.52
3918.00,100.53
3917.00,100.53
3916.00,100.53
3915.00,100.53
3914.00,100.53
3913.00,100.53
3912.00,100.53
3911.00,100.53
3910.00,100.54
3909.00,100.54
3908.00,100.54
3907.00,100.54
3906.00,100.54
3905.00,100.54
3904.00,100.54
3903.00,100.54
3902.00,100.53
3901.00,100.53
3900.00,100.51
3899.00,100.50
3898.00,100.50
3897.00,100.51
3896.00,100.51
3895.00,100.52
3894.00,100.52
3893.00,100.52
3892.00,100.52
3891.00,100.52
3890.00,100.52
3889.00,100.52
3888.00,100.52
3887.00,100.52
3886.00,100.51
3885.00,100.51
3884.00,100.52
3883.00,100.53
3882.00,100.53
3881.00,100.51
3880.00,100.50
3879.00,100.50
3878.00,100.50
3877.00,100.51
3876.00,100.50
3875.00,100.50
3874.00,100.50
3873.00,100.51
3872.00,100.52
3871.00,100.51
3870.00,100.50
3869.00,100.49
3868.00,100.48
3867.00,100.49
3866.00,100.49
3865.00,100.49
3864.00,100.49
3863.00,100.49
3862.00,100.49
3861.00,100.49
3860.00,100.49
3859.00,100.49
3858.00,100.49
3857.00,100.49
3856.00,100.49
3855.00,100.50
3854.00,100.51
3853.00,100.50
3852.00,100.49
3851.00,100.48
3850.00,100.48
3849.00,100.48
3848.00,100.48
3847.00,100.48
3846.00,100.48
3845.00,100.49
3844.00,100.50
3843.00,100.50
3842.00,100.50
3841.00,100.50
3840.00,100.50
3839.00,100.49
3838.00,100.48
3837.00,100.47
3836.00,100.47
3835.00,100.47
3834.00,100.47
3833.00,100.47
3832.00,100.47
3831.00,100.47
3830.00,100.48
3829.00,100.48
3828.00,100.49
3827.00,100.49
3826.00,100.49
3825.00,100.50
3824.00,100.50
3823.00,100.50
3822.00,100.49
3821.00,100.48
3820.00,100.48
3819.00,100.48
3818.00,100.48
3817.00,100.46
3816.00,100.45
3815.00,100.45
3814.00,100.47
3813.00,100.48
3812.00,100.49
3811.00,100.50
3810.00,100.50
3809.00,100.50
3808.00,100.51
3807.00,100.52
3806.00,100.52
3805.00,100.52
3804.00,100.51
3803.00,100.50
3802.00,100.48
3801.00,100.47
3800.00,100.47
3799.00,100.47
3798.00,100.46
3797.00,100.45
3796.00,100.44
3795.00,100.45
3794.00,100.46
3793.00,100.47
3792.00,100.48
3791.00,100.49
3790.00,100.49
3789.00,100.50
3788.00,100.50
3787.00,100.51
3786.00,100.51
3785.00,100.51
3784.00,100.51
3783.00,100.51
3782.00,100.51
3781.00,100.51
3780.00,100.50
3779.00,100.50
3778.00,100.50
3777.00,100.50
3776.00,100.50
3775.00,100.50
3774.00,100.50
3773.00,100.50
3772.00,100.50
3771.00,100.51
3770.00,100.51
3769.00,100.51
3768.00,100.51
3767.00,100.51
3766.00,100.50
3765.00,100.49
3764.00,100.49
3763.00,100.49
3762.00,100.49
3761.00,100.49
3760.00,100.48
3759.00,100.48
3758.00,100.48
3757.00,100.49
3756.00,100.49
3755.00,100.49
3754.00,100.48
3753.00,100.48
3752.00,100.47
3751.00,100.47
3750.00,100.46
3749.00,100.45
3748.00,100.45
3747.00,100.44
3746.00,100.43
3745.00,100.42
3744.00,100.42
3743.00,100.43
3742.00,100.45
3741.00,100.46
3740.00,100.45
3739.00,100.45
3738.00,100.44
3737.00,100.45
3736.00,100.45
3735.00,100.44
3734.00,100.43
3733.00,100.43
3732.00,100.42
3731.00,100.43
3730.00,100.44
3729.00,100.45
3728.00,100.46
3727.00,100.46
3726.00,100.47
3725.00,100.47
3724.00,100.48
3723.00,100.48
3722.00,100.48
3721.00,100.47
3720.00,100.46
3719.00,100.46
3718.00,100.46
3717.00,100.46
3716.00,100.47
3715.00,100.47
3714.00,100.47
3713.00,100.46
3712.00,100.46
3711.00,100.45
3710.00,100.45
3709.00,100.44
3708.00,100.44
3707.00,100.45
3706.00,100.45
3705.00,100.45
3704.00,100.45
3703.00,100.44
3702.00,100.44
3701.00,100.44
3700.00,100.44
3699.00,100.44
3698.00,100.44
3697.00,100.44
3696.00,100.44
3695.00,100.44
3694.00,100.44
3693.00,100.44
3692.00,100.43
3691.00,100.41
3690.00,100.39
3689.00,100.37
3688.00,100.34
3687.00,100.33
3686.00,100.33
3685.00,100.33
3684.00,100.33
3683.00,100.33
3682.00,100.34
3681.00,100.35
3680.00,100.35
3679.00,100.36
3678.00,100.36
3677.00,100.36
3676.00,100.35
3675.00,100.33
3674.00,100.32
3673.00,100.32
3672.00,100.31
3671.00,100.30
3670.00,100.29
3669.00,100.28
3668.00,100.30
3667.00,100.31
3666.00,100.32
3665.00,100.33
3664.00,100.34
3663.00,100.34
3662.00,100.35
3661.00,100.36
3660.00,100.36
3659.00,100.37
3658.00,100.37
3657.00,100.36
3656.00,100.35
3655.00,100.34
3654.00,100.33
3653.00,100.33
3652.00,100.32
3651.00,100.30
3650.00,100.30
3649.00,100.28
3648.00,100.26
3647.00,100.24
3646.00,100.23
3645.00,100.23
3644.00,100.24
3643.00,100.24
3642.00,100.25
3641.00,100.25
3640.00,100.25
3639.00,100.25
3638.00,100.25
3637.00,100.25
3636.00,100.24
3635.00,100.24
3634.00,100.23
3633.00,100.22
3632.00,100.21
3631.00,100.20
3630.00,100.19
3629.00,100.17
3628.00,100.15
3627.00,100.15
3626.00,100.15
3625.00,100.15
3624.00,100.14
3623.00,100.13
3622.00,100.13
3621.00,100.13
3620.00,100.12
3619.00,100.11
3618.00,100.10
3617.00,100.09
3616.00,100.08
3615.00,100.07
3614.00,100.06
3613.00,100.06
3612.00,100.05
3611.00,100.05
3610.00,100.05
3609.00,100.05
3608.00,100.04
3607.00,100.04
3606.00,100.03
3605.00,100.03
3604.00,100.03
3603.00,100.02
3602.00,100.01
3601.00,100.01
3600.00,100.01
3599.00,100.00
3598.00,99.99
3597.00,99.97
3596.00,99.95
3595.00,99.94
3594.00,99.92
3593.00,99.92
3592.00,99.91
3591.00,99.91
3590.00,99.90
3589.00,99.88
3588.00,99.87
3587.00,99.85
3586.00,99.84
3585.00,99.83
3584.00,99.82
3583.00,99.80
3582.00,99.79
3581.00,99.78
3580.00,99.77
3579.00,99.76
3578.00,99.75
3577.00,99.74
3576.00,99.73
3575.00,99.71
3574.00,99.70
3573.00,99.69
3572.00,99.68
3571.00,99.67
3570.00,99.66
3569.00,99.65
3568.00,99.63
3567.00,99.60
3566.00,99.56
3565.00,99.53
3564.00,99.51
3563.00,99.49
3562.00,99.47
3561.00,99.46
3560.00,99.45
3559.00,99.44
3558.00,99.42
3557.00,99.41
3556.00,99.39
3555.00,99.38
3554.00,99.36
3553.00,99.34
3552.00,99.32
3551.00,99.29
3550.00,99.27
3549.00,99.25
3548.00,99.22
3547.00,99.20
3546.00,99.17
3545.00,99.15
3544.00,99.13
3543.00,99.12
3542.00,99.09
3541.00,99.07
3540.00,99.05
3539.00,99.02
3538.00,99.00
3537.00,98.98
3536.00,98.95
3535.00,98.93
3534.00,98.91
3533.00,98.88
3532.00,98.86
3531.00,98.83
3530.00,98.81
3529.00,98.78
3528.00,98.76
3527.00,98.74
3526.00,98.71
3525.00,98.68
3524.00,98.65
3523.00,98.62
3522.00,98.59
3521.00,98.56
3520.00,98.54
3519.00,98.51
3518.00,98.48
3517.00,98.45
3516.00,98.43
3515.00,98.40
3514.00,98.38
3513.00,98.35
3512.00,98.32
3511.00,98.29
3510.00,98.25
3509.00,98.22
3508.00,98.19
3507.00,98.17
3506.00,98.14
3505.00,98.11
3504.00,98.07
3503.00,98.04
3502.00,98.01
3501.00,97.98
3500.00,97.95
3499.00,97.91
3498.00,97.88
3497.00,97.84
3496.00,97.81
3495.00,97.78
3494.00,97.75
3493.00,97.72
3492.00,97.69
3491.00,97.66
3490.00,97.62
3489.00,97.58
3488.00,97.54
3487.00,97.51
3486.00,97.48
3485.00,97.45
3484.00,97.41
3483.00,97.38
3482.00,97.34
3481.00,97.30
3480.00,97.26
3479.00,97.23
3478.00,97.19
3477.00,97.15
3476.00,97.12
3475.00,97.08
3474.00,97.04
3473.00,97.00
3472.00,96.96
3471.00,96.92
3470.00,96.87
3469.00,96.83
3468.00,96.79
3467.00,96.75
3466.00,96.71
3465.00,96.67
3464.00,96.63
3463.00,96.59
3462.00,96.54
3461.00,96.50
3460.00,96.45
3459.00,96.42
3458.00,96.38
3457.00,96.34
3456.00,96.29
3455.00,96.25
3454.00,96.21
3453.00,96.17
3452.00,96.12
3451.00,96.08
3450.00,96.04
3449.00,96.00
3448.00,95.95
3447.00,95.91
3446.00,95.87
3445.00,95.83
3444.00,95.79
3443.00,95.74
3442.00,95.70
3441.00,95.65
3440.00,95.60
3439.00,95.55
3438.00,95.50
3437.00,95.46
3436.00,95.41
3435.00,95.37
3434.00,95.33
3433.00,95.28
3432.00,95.24
3431.00,95.19
3430.00,95.15
3429.00,95.11
3428.00,95.07
3427.00,95.03
3426.00,94.99
3425.00,94.95
3424.00,94.91
3423.00,94.86
3422.00,94.81
3421.00,94.77
3420.00,94.72
3419.00,94.68
3418.00,94.64
3417.00,94.59
3416.00,94.54
3415.00,94.49
3414.00,94.45
3413.00,94.40
3412.00,94.36
3411.00,94.32
3410.00,94.27
3409.00,94.23
3408.00,94.19
3407.00,94.15
3406.00,94.11
3405.00,94.06
3404.00,94.01
3403.00,93.96
3402.00,93.91
3401.00,93.86
3400.00,93.82
3399.00,93.79
3398.00,93.75
3397.00,93.72
3396.00,93.68
3395.00,93.64
3394.00,93.59
3393.00,93.54
3392.00,93.50
3391.00,93.47
3390.00,93.44
3389.00,93.41
3388.00,93.38
3387.00,93.35
3386.00,93.31
3385.00,93.27
3384.00,93.24
3383.00,93.20
3382.00,93.16
3381.00,93.12
3380.00,93.08
3379.00,93.05
3378.00,93.01
3377.00,92.98
3376.00,92.95
3375.00,92.92
3374.00,92.89
3373.00,92.85
3372.00,92.82
3371.00,92.78
3370.00,92.75
3369.00,92.72
3368.00,92.69
3367.00,92.67
3366.00,92.65
3365.00,92.63
3364.00,92.60
3363.00,92.58
3362.00,92.56
3361.00,92.53
3360.00,92.52
3359.00,92.51
3358.00,92.49
3357.00,92.48
3356.00,92.47
3355.00,92.45
3354.00,92.43
3353.00,92.41
3352.00,92.39
3351.00,92.38
3350.00,92.38
3349.00,92.38
3348.00,92.39
3347.00,92.39
3346.00,92.38
3345.00,92.38
3344.00,92.37
3343.00,92.36
3342.00,92.36
3341.00,92.36
3340.00,92.36
3339.00,92.36
3338.00,92.37
3337.00,92.38
3336.00,92.39
3335.00,92.41
3334.00,92.43
3333.00,92.44
3332.00,92.46
3331.00,92.47
3330.00,92.47
3329.00,92.47
3328.00,92.47
3327.00,92.48
3326.00,92.49
3325.00,92.50
3324.00,92.51
3323.00,92.53
3322.00,92.54
3321.00,92.56
3320.00,92.57
3319.00,92.59
3318.00,92.61
3317.00,92.62
3316.00,92.63
3315.00,92.64
3314.00,92.66
3313.00,92.67
3312.00,92.69
3311.00,92.70
3310.00,92.71
3309.00,92.72
3308.00,92.74
3307.00,92.75
3306.00,92.78
3305.00,92.80
3304.00,92.83
3303.00,92.86
3302.00,92.89
3301.00,92.91
3300.00,92.94
3299.00,92.96
3298.00,92.98
3297.00,93.00
3296.00,93.02
3295.00,93.04
3294.00,93.06
3293.00,93.09
3292.00,93.12
3291.00,93.15
3290.00,93.19
3289.00,93.22
3288.00,93.25
3287.00,93.28
3286.00,93.31
3285.00,93.34
3284.00,93.37
3283.00,93.40
3282.00,93.43
3281.00,93.46
3280.00,93.49
3279.00,93.51
3278.00,93.54
3277.00,93.56
3276.00,93.59
3275.00,93.61
3274.00,93.64
3273.00,93.67
3272.00,93.70
3271.00,93.74
3270.00,93.78
3269.00,93.82
3268.00,93.86
3267.00,93.90
3266.00,93.93
3265.00,93.97
3264.00,94.00
3263.00,94.04
3262.00,94.08
3261.00,94.12
3260.00,94.16
3259.00,94.19
3258.00,94.22
3257.00,94.25
3256.00,94.28
3255.00,94.32
3254.00,94.36
3253.00,94.40
3252.00,94.44
3251.00,94.48
3250.00,94.52
3249.00,94.55
3248.00,94.58
3247.00,94.62
3246.00,94.66
3245.00,94.71
3244.00,94.75
3243.00,94.79
3242.00,94.83
3241.00,94.87
3240.00,94.91
3239.00,94.95
3238.00,94.98
3237.00,95.01
3236.00,95.05
3235.00,95.08
3234.00,95.12
3233.00,95.16
3232.00,95.20
3231.00,95.25
3230.00,95.29
3229.00,95.34
3228.00,95.38
3227.00,95.42
3226.00,95.46
3225.00,95.50
3224.00,95.53
3223.00,95.57
3222.00,95.61
3221.00,95.64
3220.00,95.69
3219.00,95.73
3218.00,95.77
3217.00,95.81
3216.00,95.85
3215.00,95.89
3214.00,95.93
3213.00,95.97
3212.00,96.01
3211.00,96.05
3210.00,96.09
3209.00,96.12
3208.00,96.16
3207.00,96.20
3206.00,96.23
3205.00,96.27
3204.00,96.31
3203.00,96.35
3202.00,96.39
3201.00,96.42
3200.00,96.46
3199.00,96.50
3198.00,96.54
3197.00,96.58
3196.00,96.62
3195.00,96.65
3194.00,96.69
3193.00,96.72
3192.00,96.76
3191.00,96.80
3190.00,96.84
3189.00,96.88
3188.00,96.92
3187.00,96.96
3186.00,96.99
3185.00,97.03
3184.00,97.06
3183.00,97.09
3182.00,97.13
3181.00,97.16
3180.00,97.20
3179.00,97.24
3178.00,97.28
3177.00,97.31
3176.00,97.35
3175.00,97.39
3174.00,97.42
3173.00,97.46
3172.00,97.49
3171.00,97.53
3170.00,97.56
3169.00,97.59
3168.00,97.63
3167.00,97.66
3166.00,97.69
3165.00,97.72
3164.00,97.75
3163.00,97.78
3162.00,97.81
3161.00,97.84
3160.00,97.87
3159.00,97.90
3158.00,97.93
3157.00,97.95
3156.00,97.98
3155.00,98.00
3154.00,98.03
3153.00,98.06
3152.00,98.09
3151.00,98.12
3150.00,98.15
3149.00,98.18
3148.00,98.21
3147.00,98.23
3146.00,98.26
3145.00,98.29
3144.00,98.31
3143.00,98.34
3142.00,98.36
3141.00,98.38
3140.00,98.40
3139.00,98.42
3138.00,98.45
3137.00,98.47
3136.00,98.50
3135.00,98.52
3134.00,98.54
3133.00,98.56
3132.00,98.58
3131.00,98.61
3130.00,98.63
3129.00,98.65
3128.00,98.66
3127.00,98.68
3126.00,98.70
3125.00,98.72
3124.00,98.74
3123.00,98.76
3122.00,98.78
3121.00,98.79
3120.00,98.82
3119.00,98.84
3118.00,98.85
3117.00,98.87
3116.00,98.88
3115.00,98.90
3114.00,98.91
3113.00,98.93
3112.00,98.95
3111.00,98.97
3110.00,98.98
3109.00,99.00
3108.00,99.01
3107.00,99.03
3106.00,99.04
3105.00,99.05
3104.00,99.06
3103.00,99.07
3102.00,99.08
3101.00,99.10
3100.00,99.12
3099.00,99.13
3098.00,99.14
3097.00,99.15
3096.00,99.16
3095.00,99.18
3094.00,99.19
3093.00,99.21
3092.00,99.22
3091.00,99.23
3090.00,99.25
3089.00,99.26
3088.00,99.27
3087.00,99.28
3086.00,99.29
3085.00,99.31
3084.00,99.32
3083.00,99.33
3082.00,99.34
3081.00,99.35
3080.00,99.36
3079.00,99.37
3078.00,99.38
3077.00,99.39
3076.00,99.40
3075.00,99.40
3074.00,99.41
3073.00,99.42
3072.00,99.42
3071.00,99.43
3070.00,99.44
3069.00,99.44
3068.00,99.45
3067.00,99.45
3066.00,99.46
3065.00,99.47
3064.00,99.48
3063.00,99.49
3062.00,99.49
3061.00,99.49
3060.00,99.50
3059.00,99.50
3058.00,99.51
3057.00,99.52
3056.00,99.52
3055.00,99.53
3054.00,99.54
3053.00,99.54
3052.00,99.55
3051.00,99.56
3050.00,99.56
3049.00,99.56
3048.00,99.57
3047.00,99.57
3046.00,99.57
3045.00,99.58
3044.00,99.58
3043.00,99.58
3042.00,99.58
3041.00,99.58
3040.00,99.58
3039.00,99.58
3038.00,99.58
3037.00,99.58
3036.00,99.58
3035.00,99.58
3034.00,99.58
3033.00,99.57
3032.00,99.57
3031.00,99.57
3030.00,99.56
3029.00,99.56
3028.00,99.56
3027.00,99.56
3026.00,99.56
3025.00,99.56
3024.00,99.55
3023.00,99.54
3022.00,99.53
3021.00,99.52
3020.00,99.52
3019.00,99.51
3018.00,99.50
3017.00,99.49
3016.00,99.48
3015.00,99.47
3014.00,99.45
3013.00,99.44
3012.00,99.42
3011.00,99.40
3010.00,99.38
3009.00,99.35
3008.00,99.33
3007.00,99.30
3006.00,99.27
3005.00,99.23
3004.00,99.20
3003.00,99.16
3002.00,99.12
3001.00,99.07
3000.00,99.01
2999.00,98.95
2998.00,98.88
2997.00,98.80
2996.00,98.71
2995.00,98.60
2994.00,98.49
2993.00,98.35
2992.00,98.19
2991.00,98.01
2990.00,97.80
2989.00,97.55
2988.00,97.27
2987.00,96.93
2986.00,96.55
2985.00,96.11
2984.00,95.61
2983.00,95.04
2982.00,94.42
2981.00,93.74
2980.00,93.01
2979.00,92.25
2978.00,91.46
2977.00,90.67
2976.00,89.88
2975.00,89.11
2974.00,88.39
2973.00,87.78
2972.00,87.30
2971.00,87.01
2970.00,86.94
2969.00,87.10
2968.00,87.48
2967.00,88.07
2966.00,88.79
2965.00,89.61
2964.00,90.46
2963.00,91.32
2962.00,92.14
2961.00,92.90
2960.00,93.60
2959.00,94.21
2958.00,94.75
2957.00,95.22
2956.00,95.61
2955.00,95.94
2954.00,96.22
2953.00,96.45
2952.00,96.63
2951.00,96.77
2950.00,96.88
2949.00,96.94
2948.00,96.98
2947.00,96.98
2946.00,96.96
2945.00,96.90
2944.00,96.83
2943.00,96.74
2942.00,96.63
2941.00,96.52
2940.00,96.41
2939.00,96.30
2938.00,96.21
2937.00,96.12
2936.00,96.05
2935.00,96.00
2934.00,95.96
2933.00,95.93
2932.00,95.93
2931.00,95.93
2930.00,95.95
2929.00,95.98
2928.00,96.01
2927.00,96.04
2926.00,96.08
2925.00,96.11
2924.00,96.14
2923.00,96.17
2922.00,96.19
2921.00,96.22
2920.00,96.26
2919.00,96.29
2918.00,96.34
2917.00,96.38
2916.00,96.43
2915.00,96.47
2914.00,96.52
2913.00,96.57
2912.00,96.61
2911.00,96.65
2910.00,96.69
2909.00,96.72
2908.00,96.75
2907.00,96.76
2906.00,96.77
2905.00,96.78
2904.00,96.77
2903.00,96.76
2902.00,96.74
2901.00,96.72
2900.00,96.71
2899.00,96.69
2898.00,96.66
2897.00,96.64
2896.00,96.60
2895.00,96.57
2894.00,96.53
2893.00,96.49
2892.00,96.45
2891.00,96.41
2890.00,96.37
2889.00,96.33
2888.00,96.29
2887.00,96.26
2886.00,96.23
2885.00,96.22
2884.00,96.21
2883.00,96.21
2882.00,96.22
2881.00,96.25
2880.00,96.28
2879.00,96.33
2878.00,96.38
2877.00,96.45
2876.00,96.52
2875.00,96.60
2874.00,96.68
2873.00,96.76
2872.00,96.83
2871.00,96.91
2870.00,96.99
2869.00,97.06
2868.00,97.14
2867.00,97.21
2866.00,97.27
2865.00,97.34
2864.00,97.40
2863.00,97.46
2862.00,97.52
2861.00,97.58
2860.00,97.64
2859.00,97.70
2858.00,97.76
2857.00,97.81
2856.00,97.86
2855.00,97.91
2854.00,97.96
2853.00,98.02
2852.00,98.07
2851.00,98.13
2850.00,98.20
2849.00,98.26
2848.00,98.32
2847.00,98.38
2846.00,98.44
2845.00,98.49
2844.00,98.55
2843.00,98.60
2842.00,98.65
2841.00,98.70
2840.00,98.74
2839.00,98.78
2838.00,98.82
2837.00,98.85
2836.00,98.87
2835.00,98.90
2834.00,98.92
2833.00,98.94
2832.00,98.96
2831.00,98.98
2830.00,99.00
2829.00,99.02
2828.00,99.04
2827.00,99.06
2826.00,99.08
2825.00,99.09
2824.00,99.11
2823.00,99.12
2822.00,99.13
2821.00,99.14
2820.00,99.15
2819.00,99.16
2818.00,99.17
2817.00,99.18
2816.00,99.19
2815.00,99.21
2814.00,99.22
2813.00,99.23
2812.00,99.25
2811.00,99.26
2810.00,99.27
2809.00,99.28
2808.00,99.29
2807.00,99.30
2806.00,99.31
2805.00,99.33
2804.00,99.34
2803.00,99.36
2802.00,99.37
2801.00,99.39
2800.00,99.40
2799.00,99.42
2798.00,99.43
2797.00,99.44
2796.00,99.44
2795.00,99.45
2794.00,99.45
2793.00,99.46
2792.00,99.47
2791.00,99.47
2790.00,99.48
2789.00,99.48
2788.00,99.48
2787.00,99.48
2786.00,99.49
2785.00,99.49
2784.00,99.50
2783.00,99.51
2782.00,99.52
2781.00,99.52
2780.00,99.53
2779.00,99.53
2778.00,99.54
2777.00,99.55
2776.00,99.56
2775.00,99.57
2774.00,99.57
2773.00,99.58
2772.00,99.58
2771.00,99.58
2770.00,99.58
2769.00,99.59
2768.00,99.59
2767.00,99.60
2766.00,99.60
2765.00,99.60
2764.00,99.61
2763.00,99.61
2762.00,99.62
2761.00,99.62
2760.00,99.63
2759.00,99.64
2758.00,99.64
2757.00,99.65
2756.00,99.65
2755.00,99.65
2754.00,99.66
2753.00,99.66
2752.00,99.67
2751.00,99.68
2750.00,99.69
2749.00,99.69
2748.00,99.70
2747.00,99.69
2746.00,99.69
2745.00,99.69
2744.00,99.69
2743.00,99.69
2742.00,99.68
2741.00,99.68
2740.00,99.68
2739.00,99.68
2738.00,99.68
2737.00,99.68
2736.00,99.67
2735.00,99.67
2734.00,99.66
2733.00,99.66
2732.00,99.65
2731.00,99.64
2730.00,99.64
2729.00,99.64
2728.00,99.64
2727.00,99.64
2726.00,99.63
2725.00,99.63
2724.00,99.63
2723.00,99.63
2722.00,99.62
2721.00,99.62
2720.00,99.62
2719.00,99.62
2718.00,99.63
2717.00,99.63
2716.00,99.64
2715.00,99.65
2714.00,99.66
2713.00,99.66
2712.00,99.67
2711.00,99.67
2710.00,99.68
2709.00,99.68
2708.00,99.68
2707.00,99.69
2706.00,99.69
2705.00,99.70
2704.00,99.70
2703.00,99.70
2702.00,99.70
2701.00,99.71
2700.00,99.71
2699.00,99.72
2698.00,99.72
2697.00,99.73
2696.00,99.74
2695.00,99.75
2694.00,99.76
2693.00,99.77
2692.00,99.78
2691.00,99.79
2690.00,99.80
2689.00,99.81
2688.00,99.81
2687.00,99.82
2686.00,99.83
2685.00,99.83
2684.00,99.84
2683.00,99.84
2682.00,99.85
2681.00,99.85
2680.00,99.86
2679.00,99.86
2678.00,99.85
2677.00,99.85
2676.00,99.84
2675.00,99.83
2674.00,99.82
2673.00,99.81
2672.00,99.80
2671.00,99.79
2670.00,99.78
2669.00,99.76
2668.00,99.75
2667.00,99.73
2666.00,99.71
2665.00,99.69
2664.00,99.67
2663.00,99.66
2662.00,99.65
2661.00,99.64
2660.00,99.64
2659.00,99.64
2658.00,99.64
2657.00,99.64
2656.00,99.64
2655.00,99.65
2654.00,99.66
2653.00,99.67
2652.00,99.68
2651.00,99.70
2650.00,99.71
2649.00,99.72
2648.00,99.74
2647.00,99.75
2646.00,99.76
2645.00,99.78
2644.00,99.79
2643.00,99.80
2642.00,99.81
2641.00,99.83
2640.00,99.84
2639.00,99.84
2638.00,99.85
2637.00,99.86
2636.00,99.87
2635.00,99.87
2634.00,99.88
2633.00,99.88
2632.00,99.88
2631.00,99.89
2630.00,99.89
2629.00,99.89
2628.00,99.89
2627.00,99.89
2626.00,99.89
2625.00,99.89
2624.00,99.89
2623.00,99.89
2622.00,99.89
2621.00,99.89
2620.00,99.89
2619.00,99.88
2618.00,99.88
2617.00,99.88
2616.00,99.88
2615.00,99.88
2614.00,99.88
2613.00,99.88
2612.00,99.88
2611.00,99.88
2610.00,99.87
2609.00,99.87
2608.00,99.86
2607.00,99.86
2606.00,99.86
2605.00,99.86
2604.00,99.86
2603.00,99.86
2602.00,99.86
2601.00,99.86
2600.00,99.86
2599.00,99.86
2598.00,99.87
2597.00,99.87
2596.00,99.87
2595.00,99.87
2594.00,99.87
2593.00,99.87
2592.00,99.87
2591.00,99.87
2590.00,99.87
2589.00,99.87
2588.00,99.87
2587.00,99.87
2586.00,99.87
2585.00,99.87
2584.00,99.87
2583.00,99.87
2582.00,99.88
2581.00,99.88
2580.00,99.88
2579.00,99.88
2578.00,99.88
2577.00,99.88
2576.00,99.88
2575.00,99.88
2574.00,99.88
2573.00,99.89
2572.00,99.89
2571.00,99.90
2570.00,99.90
2569.00,99.91
2568.00,99.92
2567.00,99.92
2566.00,99.93
2565.00,99.94
2564.00,99.94
2563.00,99.95
2562.00,99.96
2561.00,99.96
2560.00,99.97
2559.00,99.98
2558.00,99.99
2557.00,99.99
2556.00,100.00
2555.00,100.00
2554.00,100.00
2553.00,100.01
2552.00,100.01
2551.00,100.01
2550.00,100.01
2549.00,100.02
2548.00,100.02
2547.00,100.02
2546.00,100.01
2545.00,100.01
2544.00,100.01
2543.00,100.01
2542.00,100.01
2541.00,100.01
2540.00,100.01
2539.00,100.00
2538.00,100.00
2537.00,99.99
2536.00,99.99
2535.00,99.99
2534.00,99.98
2533.00,99.98
2532.00,99.97
2531.00,99.97
2530.00,99.97
2529.00,99.97
2528.00,99.97
2527.00,99.97
2526.00,99.97
2525.00,99.97
2524.00,99.97
2523.00,99.97
2522.00,99.97
2521.00,99.97
2520.00,99.97
2519.00,99.97
2518.00,99.97
2517.00,99.97
2516.00,99.97
2515.00,99.97
2514.00,99.98
2513.00,99.98
2512.00,99.98
2511.00,99.99
2510.00,99.99
2509.00,99.99
2508.00,99.99
2507.00,100.00
2506.00,100.01
2505.00,100.02
2504.00,100.03
2503.00,100.03
2502.00,100.03
2501.00,100.04
2500.00,100.04
2499.00,100.04
2498.00,100.04
2497.00,100.04
2496.00,100.05
2495.00,100.05
2494.00,100.06
2493.00,100.07
2492.00,100.08
2491.00,100.08
2490.00,100.08
2489.00,100.08
2488.00,100.07
2487.00,100.07
2486.00,100.07
2485.00,100.08
2484.00,100.08
2483.00,100.08
2482.00,100.08
2481.00,100.08
2480.00,100.08
2479.00,100.08
2478.00,100.08
2477.00,100.08
2476.00,100.08
2475.00,100.07
2474.00,100.07
2473.00,100.07
2472.00,100.08
2471.00,100.08
2470.00,100.08
2469.00,100.09
2468.00,100.09
2467.00,100.10
2466.00,100.10
2465.00,100.10
2464.00,100.10
2463.00,100.11
2462.00,100.11
2461.00,100.11
2460.00,100.12
2459.00,100.12
2458.00,100.12
2457.00,100.12
2456.00,100.12
2455.00,100.13
2454.00,100.13
2453.00,100.13
2452.00,100.13
2451.00,100.13
2450.00,100.13
2449.00,100.13
2448.00,100.13
2447.00,100.14
2446.00,100.14
2445.00,100.14
2444.00,100.14
2443.00,100.14
2442.00,100.14
2441.00,100.14
2440.00,100.14
2439.00,100.14
2438.00,100.13
2437.00,100.13
2436.00,100.13
2435.00,100.13
2434.00,100.13
2433.00,100.13
2432.00,100.12
2431.00,100.12
2430.00,100.12
2429.00,100.11
2428.00,100.11
2427.00,100.10
2426.00,100.10
2425.00,100.09
2424.00,100.08
2423.00,100.08
2422.00,100.07
2421.00,100.07
2420.00,100.07
2419.00,100.07
2418.00,100.06
2417.00,100.06
2416.00,100.05
2415.00,100.05
2414.00,100.05
2413.00,100.05
2412.00,100.04
2411.00,100.04
2410.00,100.05
2409.00,100.05
2408.00,100.05
2407.00,100.05
2406.00,100.05
2405.00,100.05
2404.00,100.05
2403.00,100.05
2402.00,100.05
2401.00,100.05
2400.00,100.06
2399.00,100.06
2398.00,100.06
2397.00,100.06
2396.00,100.06
2395.00,100.07
2394.00,100.07
2393.00,100.07
2392.00,100.08
2391.00,100.08
2390.00,100.08
2389.00,100.09
2388.00,100.09
2387.00,100.10
2386.00,100.11
2385.00,100.12
2384.00,100.12
2383.00,100.13
2382.00,100.14
2381.00,100.14
2380.00,100.15
2379.00,100.15
2378.00,100.15
2377.00,100.15
2376.00,100.15
2375.00,100.15
2374.00,100.15
2373.00,100.15
2372.00,100.15
2371.00,100.15
2370.00,100.16
2369.00,100.17
2368.00,100.18
2367.00,100.18
2366.00,100.18
2365.00,100.17
2364.00,100.16
2363.00,100.16
2362.00,100.16
2361.00,100.17
2360.00,100.17
2359.00,100.18
2358.00,100.18
2357.00,100.17
2356.00,100.17
2355.00,100.16
2354.00,100.16
2353.00,100.16
2352.00,100.17
2351.00,100.17
2350.00,100.18
2349.00,100.18
2348.00,100.18
2347.00,100.18
2346.00,100.19
2345.00,100.19
2344.00,100.19
2343.00,100.18
2342.00,100.17
2341.00,100.17
2340.00,100.17
2339.00,100.17
2338.00,100.17
2337.00,100.16
2336.00,100.16
2335.00,100.16
2334.00,100.16
2333.00,100.16
2332.00,100.16
2331.00,100.16
2330.00,100.16
2329.00,100.16
2328.00,100.16
2327.00,100.15
2326.00,100.14
2325.00,100.13
2324.00,100.12
2323.00,100.12
2322.00,100.12
2321.00,100.12
2320.00,100.12
2319.00,100.12
2318.00,100.12
2317.00,100.12
2316.00,100.12
2315.00,100.12
2314.00,100.12
2313.00,100.12
2312.00,100.13
2311.00,100.13
2310.00,100.14
2309.00,100.14
2308.00,100.14
2307.00,100.14
2306.00,100.14
2305.00,100.14
2304.00,100.14
2303.00,100.13
2302.00,100.13
2301.00,100.12
2300.00,100.12
2299.00,100.12
2298.00,100.12
2297.00,100.13
2296.00,100.13
2295.00,100.13
2294.00,100.13
2293.00,100.12
2292.00,100.12
2291.00,100.11
2290.00,100.11
2289.00,100.11
2288.00,100.11
2287.00,100.11
2286.00,100.11
2285.00,100.10
2284.00,100.10
2283.00,100.10
2282.00,100.11
2281.00,100.11
2280.00,100.11
2279.00,100.11
2278.00,100.11
2277.00,100.11
2276.00,100.11
2275.00,100.11
2274.00,100.12
2273.00,100.11
2272.00,100.11
2271.00,100.11
2270.00,100.11
2269.00,100.11
2268.00,100.11
2267.00,100.12
2266.00,100.12
2265.00,100.12
2264.00,100.12
2263.00,100.12
2262.00,100.12
2261.00,100.12
2260.00,100.12
2259.00,100.11
2258.00,100.11
2257.00,100.11
2256.00,100.11
2255.00,100.11
2254.00,100.11
2253.00,100.11
2252.00,100.11
2251.00,100.11
2250.00,100.12
2249.00,100.12
2248.00,100.13
2247.00,100.12
2246.00,100.12
2245.00,100.11
2244.00,100.10
2243.00,100.11
2242.00,100.11
2241.00,100.12
2240.00,100.12
2239.00,100.11
2238.00,100.11
2237.00,100.11
2236.00,100.11
2235.00,100.11
2234.00,100.12
2233.00,100.12
2232.00,100.11
2231.00,100.10
2230.00,100.10
2229.00,100.10
2228.00,100.10
2227.00,100.10
2226.00,100.10
2225.00,100.09
2224.00,100.08
2223.00,100.08
2222.00,100.08
2221.00,100.09
2220.00,100.09
2219.00,100.08
2218.00,100.08
2217.00,100.07
2216.00,100.06
2215.00,100.06
2214.00,100.06
2213.00,100.06
2212.00,100.06
2211.00,100.07
2210.00,100.07
2209.00,100.07
2208.00,100.07
2207.00,100.06
2206.00,100.05
2205.00,100.05
2204.00,100.05
2203.00,100.04
2202.00,100.04
2201.00,100.04
2200.00,100.04
2199.00,100.04
2198.00,100.03
2197.00,100.02
2196.00,100.02
2195.00,100.02
2194.00,100.02
2193.00,100.02
2192.00,100.02
2191.00,100.02
2190.00,100.03
2189.00,100.03
2188.00,100.04
2187.00,100.04
2186.00,100.04
2185.00,100.04
2184.00,100.05
2183.00,100.07
2182.00,100.08
2181.00,100.08
2180.00,100.07
2179.00,100.06
2178.00,100.06
2177.00,100.06
2176.00,100.06
2175.00,100.07
2174.00,100.07
2173.00,100.08
2172.00,100.07
2171.00,100.08
2170.00,100.08
2169.00,100.08
2168.00,100.08
2167.00,100.07
2166.00,100.06
2165.00,100.06
2164.00,100.05
2163.00,100.04
2162.00,100.04
2161.00,100.05
2160.00,100.06
2159.00,100.07
2158.00,100.07
2157.00,100.09
2156.00,100.10
2155.00,100.12
2154.00,100.14
2153.00,100.13
2152.00,100.12
2151.00,100.11
2150.00,100.10
2149.00,100.09
2148.00,100.09
2147.00,100.09
2146.00,100.10
2145.00,100.10
2144.00,100.11
2143.00,100.11
2142.00,100.12
2141.00,100.12
2140.00,100.11
2139.00,100.11
2138.00,100.10
2137.00,100.10
2136.00,100.10
2135.00,100.09
2134.00,100.09
2133.00,100.09
2132.00,100.09
2131.00,100.09
2130.00,100.09
2129.00,100.09
2128.00,100.09
2127.00,100.09
2126.00,100.10
2125.00,100.10
2124.00,100.10
2123.00,100.09
2122.00,100.09
2121.00,100.08
2120.00,100.07
2119.00,100.07
2118.00,100.07
2117.00,100.08
2116.00,100.08
2115.00,100.09
2114.00,100.09
2113.00,100.09
2112.00,100.09
2111.00,100.09
2110.00,100.08
2109.00,100.08
2108.00,100.07
2107.00,100.07
2106.00,100.07
2105.00,100.06
2104.00,100.06
2103.00,100.06
2102.00,100.06
2101.00,100.06
2100.00,100.06
2099.00,100.06
2098.00,100.06
2097.00,100.06
2096.00,100.06
2095.00,100.06
2094.00,100.07
2093.00,100.07
2092.00,100.07
2091.00,100.07
2090.00,100.06
2089.00,100.05
2088.00,100.05
2087.00,100.05
2086.00,100.04
2085.00,100.04
2084.00,100.03
2083.00,100.03
2082.00,100.03
2081.00,100.04
2080.00,100.04
2079.00,100.04
2078.00,100.04
2077.00,100.05
2076.00,100.05
2075.00,100.05
2074.00,100.05
2073.00,100.05
2072.00,100.04
2071.00,100.04
2070.00,100.04
2069.00,100.04
2068.00,100.04
2067.00,100.04
2066.00,100.04
2065.00,100.04
2064.00,100.04
2063.00,100.04
2062.00,100.04
2061.00,100.05
2060.00,100.05
2059.00,100.05
2058.00,100.04
2057.00,100.04
2056.00,100.03
2055.00,100.03
2054.00,100.03
2053.00,100.03
2052.00,100.04
2051.00,100.04
2050.00,100.04
2049.00,100.05
2048.00,100.05
2047.00,100.05
2046.00,100.05
2045.00,100.05
2044.00,100.05
2043.00,100.04
2042.00,100.05
2041.00,100.05
2040.00,100.05
2039.00,100.06
2038.00,100.06
2037.00,100.06
2036.00,100.05
2035.00,100.04
2034.00,100.04
2033.00,100.04
2032.00,100.04
2031.00,100.04
2030.00,100.05
2029.00,100.05
2028.00,100.06
2027.00,100.06
2026.00,100.06
2025.00,100.07
2024.00,100.08
2023.00,100.09
2022.00,100.10
2021.00,100.10
2020.00,100.09
2019.00,100.07
2018.00,100.05
2017.00,100.04
2016.00,100.04
2015.00,100.05
2014.00,100.06
2013.00,100.06
2012.00,100.06
2011.00,100.06
2010.00,100.06
2009.00,100.06
2008.00,100.06
2007.00,100.06
2006.00,100.06
2005.00,100.06
2004.00,100.05
2003.00,100.04
2002.00,100.05
2001.00,100.06
2000.00,100.07
1999.00,100.07
1998.00,100.06
1997.00,100.06
1996.00,100.05
1995.00,100.05
1994.00,100.05
1993.00,100.06
1992.00,100.06
1991.00,100.06
1990.00,100.06
1989.00,100.06
1988.00,100.05
1987.00,100.05
1986.00,100.05
1985.00,100.04
1984.00,100.03
1983.00,100.03
1982.00,100.02
1981.00,100.02
1980.00,100.02
1979.00,100.02
1978.00,100.03
1977.00,100.04
1976.00,100.05
1975.00,100.05
1974.00,100.05
1973.00,100.05
1972.00,100.05
1971.00,100.04
1970.00,100.04
1969.00,100.04
1968.00,100.04
1967.00,100.04
1966.00,100.04
1965.00,100.03
1964.00,100.02
1963.00,100.03
1962.00,100.05
1961.00,100.06
1960.00,100.07
1959.00,100.07
1958.00,100.06
1957.00,100.05
1956.00,100.05
1955.00,100.04
1954.00,100.05
1953.00,100.05
1952.00,100.05
1951.00,100.05
1950.00,100.05
1949.00,100.05
1948.00,100.05
1947.00,100.06
1946.00,100.06
1945.00,100.06
1944.00,100.05
1943.00,100.04
1942.00,100.04
1941.00,100.03
1940.00,100.03
1939.00,100.03
1938.00,100.03
1937.00,100.04
1936.00,100.05
1935.00,100.05
1934.00,100.05
1933.00,100.05
1932.00,100.04
1931.00,100.04
1930.00,100.03
1929.00,100.03
1928.00,100.02
1927.00,100.02
1926.00,100.03
1925.00,100.03
1924.00,100.03
1923.00,100.02
1922.00,100.01
1921.00,100.01
1920.00,100.00
1919.00,100.00
1918.00,100.00
1917.00,100.01
1916.00,100.00
1915.00,100.00
1914.00,99.99
1913.00,99.99
1912.00,99.98
1911.00,99.97
1910.00,99.97
1909.00,99.97
1908.00,99.96
1907.00,99.95
1906.00,99.95
1905.00,99.94
1904.00,99.94
1903.00,99.94
1902.00,99.94
1901.00,99.94
1900.00,99.94
1899.00,99.94
1898.00,99.94
1897.00,99.94
1896.00,99.95
1895.00,99.95
1894.00,99.96
1893.00,99.97
1892.00,99.97
1891.00,99.97
1890.00,99.97
1889.00,99.96
1888.00,99.96
1887.00,99.97
1886.00,99.98
1885.00,99.98
1884.00,99.98
1883.00,99.98
1882.00,99.98
1881.00,99.98
1880.00,99.99
1879.00,99.99
1878.00,99.99
1877.00,99.99
1876.00,99.99
1875.00,99.99
1874.00,99.99
1873.00,100.00
1872.00,100.00
1871.00,100.01
1870.00,100.01
1869.00,100.01
1868.00,100.00
1867.00,100.00
1866.00,99.99
1865.00,99.99
1864.00,99.99
1863.00,99.99
1862.00,100.00
1861.00,100.00
1860.00,100.00
1859.00,100.00
1858.00,99.99
1857.00,99.99
1856.00,99.99
1855.00,99.99
1854.00,100.00
1853.00,100.00
1852.00,100.00
1851.00,100.00
1850.00,99.99
1849.00,99.99
1848.00,100.00
1847.00,100.00
1846.00,100.00
1845.00,100.00
1844.00,99.99
1843.00,99.98
1842.00,99.98
1841.00,99.98
1840.00,99.98
1839.00,99.98
1838.00,99.99
1837.00,99.99
1836.00,99.98
1835.00,99.98
1834.00,99.98
1833.00,99.99
1832.00,99.99
1831.00,99.98
1830.00,99.98
1829.00,99.98
1828.00,99.98
1827.00,99.97
1826.00,99.97
1825.00,99.97
1824.00,99.97
1823.00,99.98
1822.00,99.98
1821.00,99.98
1820.00,99.98
1819.00,99.98
1818.00,99.98
1817.00,99.98
1816.00,99.98
1815.00,99.98
1814.00,99.97
1813.00,99.97
1812.00,99.97
1811.00,99.96
1810.00,99.96
1809.00,99.96
1808.00,99.96
1807.00,99.96
1806.00,99.96
1805.00,99.96
1804.00,99.95
1803.00,99.95
1802.00,99.95
1801.00,99.95
1800.00,99.95
1799.00,99.95
1798.00,99.95
1797.00,99.95
1796.00,99.94
1795.00,99.94
1794.00,99.94
1793.00,99.94
1792.00,99.93
1791.00,99.92
1790.00,99.92
1789.00,99.92
1788.00,99.92
1787.00,99.92
1786.00,99.92
1785.00,99.92
1784.00,99.91
1783.00,99.90
1782.00,99.89
1781.00,99.88
1780.00,99.87
1779.00,99.86
1778.00,99.84
1777.00,99.83
1776.00,99.82
1775.00,99.81
1774.00,99.79
1773.00,99.77
1772.00,99.74
1771.00,99.72
1770.00,99.71
1769.00,99.69
1768.00,99.69
1767.00,99.69
1766.00,99.69
1765.00,99.70
1764.00,99.70
1763.00,99.71
1762.00,99.72
1761.00,99.73
1760.00,99.75
1759.00,99.75
1758.00,99.76
1757.00,99.77
1756.00,99.78
1755.00,99.79
1754.00,99.79
1753.00,99.79
1752.00,99.79
1751.00,99.80
1750.00,99.80
1749.00,99.80
1748.00,99.80
1747.00,99.80
1746.00,99.80
1745.00,99.80
1744.00,99.80
1743.00,99.80
1742.00,99.80
1741.00,99.80
1740.00,99.80
1739.00,99.81
1738.00,99.81
1737.00,99.82
1736.00,99.81
1735.00,99.81
1734.00,99.81
1733.00,99.80
1732.00,99.80
1731.00,99.79
1730.00,99.78
1729.00,99.78
1728.00,99.78
1727.00,99.78
1726.00,99.78
1725.00,99.78
1724.00,99.78
1723.00,99.78
1722.00,99.78
1721.00,99.78
1720.00,99.77
1719.00,99.77
1718.00,99.77
1717.00,99.77
1716.00,99.76
1715.00,99.75
1714.00,99.75
1713.00,99.75
1712.00,99.74
1711.00,99.74
1710.00,99.73
1709.00,99.73
1708.00,99.73
1707.00,99.73
1706.00,99.72
1705.00,99.72
1704.00,99.71
1703.00,99.71
1702.00,99.70
1701.00,99.70
1700.00,99.70
1699.00,99.69
1698.00,99.68
1697.00,99.65
1696.00,99.63
1695.00,99.62
1694.00,99.63
1693.00,99.64
1692.00,99.63
1691.00,99.62
1690.00,99.60
1689.00,99.60
1688.00,99.58
1687.00,99.57
1686.00,99.55
1685.00,99.52
1684.00,99.50
1683.00,99.48
1682.00,99.48
1681.00,99.46
1680.00,99.44
1679.00,99.43
1678.00,99.42
1677.00,99.41
1676.00,99.40
1675.00,99.38
1674.00,99.37
1673.00,99.35
1672.00,99.33
1671.00,99.30
1670.00,99.28
1669.00,99.26
1668.00,99.24
1667.00,99.23
1666.00,99.21
1665.00,99.20
1664.00,99.18
1663.00,99.16
1662.00,99.15
1661.00,99.13
1660.00,99.12
1659.00,99.11
1658.00,99.11
1657.00,99.11
1656.00,99.11
1655.00,99.11
1654.00,99.11
1653.00,99.12
1652.00,99.14
1651.00,99.16
1650.00,99.16
1649.00,99.16
1648.00,99.15
1647.00,99.16
1646.00,99.16
1645.00,99.17
1644.00,99.18
1643.00,99.18
1642.00,99.18
1641.00,99.18
1640.00,99.19
1639.00,99.19
1638.00,99.20
1637.00,99.20
1636.00,99.20
1635.00,99.19
1634.00,99.20
1633.00,99.21
1632.00,99.21
1631.00,99.23
1630.00,99.25
1629.00,99.28
1628.00,99.32
1627.00,99.35
1626.00,99.38
1625.00,99.40
1624.00,99.42
1623.00,99.45
1622.00,99.47
1621.00,99.49
1620.00,99.49
1619.00,99.49
1618.00,99.50
1617.00,99.51
1616.00,99.53
1615.00,99.55
1614.00,99.56
1613.00,99.57
1612.00,99.57
1611.00,99.58
1610.00,99.59
1609.00,99.59
1608.00,99.60
1607.00,99.60
1606.00,99.61
1605.00,99.61
1604.00,99.61
1603.00,99.62
1602.00,99.62
1601.00,99.62
1600.00,99.63
1599.00,99.63
1598.00,99.63
1597.00,99.63
1596.00,99.63
1595.00,99.64
1594.00,99.64
1593.00,99.64
1592.00,99.64
1591.00,99.65
1590.00,99.65
1589.00,99.65
1588.00,99.65
1587.00,99.65
1586.00,99.65
1585.00,99.65
1584.00,99.65
1583.00,99.66
1582.00,99.66
1581.00,99.66
1580.00,99.66
1579.00,99.66
1578.00,99.65
1577.00,99.65
1576.00,99.64
1575.00,99.64
1574.00,99.65
1573.00,99.65
1572.00,99.64
1571.00,99.64
1570.00,99.63
1569.00,99.63
1568.00,99.63
1567.00,99.63
1566.00,99.62
1565.00,99.62
1564.00,99.62
1563.00,99.62
1562.00,99.62
1561.00,99.61
1560.00,99.60
1559.00,99.60
1558.00,99.59
1557.00,99.59
1556.00,99.59
1555.00,99.58
1554.00,99.58
1553.00,99.58
1552.00,99.58
1551.00,99.57
1550.00,99.56
1549.00,99.56
1548.00,99.56
1547.00,99.56
1546.00,99.56
1545.00,99.56
1544.00,99.56
1543.00,99.55
1542.00,99.55
1541.00,99.53
1540.00,99.49
1539.00,99.47
1538.00,99.48
1537.00,99.48
1536.00,99.48
1535.00,99.47
1534.00,99.46
1533.00,99.46
1532.00,99.45
1531.00,99.44
1530.00,99.43
1529.00,99.42
1528.00,99.42
1527.00,99.41
1526.00,99.40
1525.00,99.39
1524.00,99.37
1523.00,99.36
1522.00,99.34
1521.00,99.33
1520.00,99.31
1519.00,99.31
1518.00,99.30
1517.00,99.28
1516.00,99.26
1515.00,99.25
1514.00,99.24
1513.00,99.23
1512.00,99.21
1511.00,99.19
1510.00,99.18
1509.00,99.16
1508.00,99.13
1507.00,99.08
1506.00,99.03
1505.00,99.02
1504.00,99.01
1503.00,99.00
1502.00,98.98
1501.00,98.96
1500.00,98.93
1499.00,98.90
1498.00,98.87
1497.00,98.82
1496.00,98.77
1495.00,98.72
1494.00,98.69
1493.00,98.66
1492.00,98.61
1491.00,98.56
1490.00,98.49
1489.00,98.39
1488.00,98.30
1487.00,98.22
1486.00,98.14
1485.00,98.06
1484.00,97.97
1483.00,97.88
1482.00,97.77
1481.00,97.64
1480.00,97.50
1479.00,97.37
1478.00,97.22
1477.00,97.05
1476.00,96.85
1475.00,96.63
1474.00,96.35
1473.00,95.94
1472.00,95.44
1471.00,95.04
1470.00,94.78
1469.00,94.59
1468.00,94.47
1467.00,94.43
1466.00,94.46
1465.00,94.60
1464.00,94.80
1463.00,94.98
1462.00,95.12
1461.00,95.24
1460.00,95.35
1459.00,95.48
1458.00,95.66
1457.00,95.88
1456.00,96.06
1455.00,96.18
1454.00,96.27
1453.00,96.38
1452.00,96.51
1451.00,96.66
1450.00,96.80
1449.00,96.94
1448.00,97.08
1447.00,97.19
1446.00,97.27
1445.00,97.31
1444.00,97.33
1443.00,97.33
1442.00,97.32
1441.00,97.30
1440.00,97.28
1439.00,97.24
1438.00,97.19
1437.00,97.12
1436.00,97.05
1435.00,96.98
1434.00,96.91
1433.00,96.85
1432.00,96.78
1431.00,96.71
1430.00,96.63
1429.00,96.55
1428.00,96.48
1427.00,96.41
1426.00,96.34
1425.00,96.27
1424.00,96.19
1423.00,96.12
1422.00,96.05
1421.00,95.98
1420.00,95.91
1419.00,95.81
1418.00,95.72
1417.00,95.63
1416.00,95.55
1415.00,95.47
1414.00,95.39
1413.00,95.32
1412.00,95.24
1411.00,95.19
1410.00,95.15
1409.00,95.12
1408.00,95.12
1407.00,95.13
1406.00,95.17
1405.00,95.22
1404.00,95.30
1403.00,95.37
1402.00,95.44
1401.00,95.51
1400.00,95.59
1399.00,95.68
1398.00,95.76
1397.00,95.82
1396.00,95.85
1395.00,95.88
1394.00,95.87
1393.00,95.84
1392.00,95.78
1391.00,95.67
1390.00,95.53
1389.00,95.30
1388.00,94.93
1387.00,94.41
1386.00,93.79
1385.00,93.14
1384.00,92.44
1383.00,91.70
1382.00,90.98
1381.00,90.36
1380.00,89.94
1379.00,89.78
1378.00,89.87
1377.00,90.17
1376.00,90.60
1375.00,91.12
1374.00,91.61
1373.00,91.95
1372.00,92.09
1371.00,92.10
1370.00,92.05
1369.00,92.00
1368.00,92.00
1367.00,92.10
1366.00,92.32
1365.00,92.65
1364.00,93.12
1363.00,93.75
1362.00,94.44
1361.00,95.03
1360.00,95.49
1359.00,95.85
1358.00,96.15
1357.00,96.38
1356.00,96.56
1355.00,96.68
1354.00,96.76
1353.00,96.79
1352.00,96.78
1351.00,96.73
1350.00,96.64
1349.00,96.51
1348.00,96.33
1347.00,96.12
1346.00,95.88
1345.00,95.62
1344.00,95.36
1343.00,95.15
1342.00,94.99
1341.00,94.92
1340.00,94.95
1339.00,95.09
1338.00,95.28
1337.00,95.47
1336.00,95.66
1335.00,95.81
1334.00,95.93
1333.00,96.02
1332.00,96.07
1331.00,96.08
1330.00,96.05
1329.00,96.00
1328.00,95.91
1327.00,95.79
1326.00,95.65
1325.00,95.48
1324.00,95.30
1323.00,95.12
1322.00,94.93
1321.00,94.74
1320.00,94.54
1319.00,94.35
1318.00,94.17
1317.00,94.00
1316.00,93.86
1315.00,93.73
1314.00,93.61
1313.00,93.51
1312.00,93.42
1311.00,93.35
1310.00,93.30
1309.00,93.26
1308.00,93.23
1307.00,93.21
1306.00,93.21
1305.00,93.23
1304.00,93.26
1303.00,93.30
1302.00,93.36
1301.00,93.44
1300.00,93.53
1299.00,93.64
1298.00,93.77
1297.00,93.91
1296.00,94.05
1295.00,94.20
1294.00,94.36
1293.00,94.52
1292.00,94.68
1291.00,94.84
1290.00,95.01
1289.00,95.18
1288.00,95.35
1287.00,95.53
1286.00,95.70
1285.00,95.86
1284.00,96.02
1283.00,96.18
1282.00,96.33
1281.00,96.47
1280.00,96.61
1279.00,96.74
1278.00,96.87
1277.00,96.98
1276.00,97.09
1275.00,97.19
1274.00,97.28
1273.00,97.37
1272.00,97.45
1271.00,97.53
1270.00,97.61
1269.00,97.67
1268.00,97.74
1267.00,97.79
1266.00,97.85
1265.00,97.90
1264.00,97.94
1263.00,97.99
1262.00,98.03
1261.00,98.07
1260.00,98.10
1259.00,98.14
1258.00,98.16
1257.00,98.19
1256.00,98.22
1255.00,98.25
1254.00,98.27
1253.00,98.30
1252.00,98.32
1251.00,98.35
1250.00,98.37
1249.00,98.40
1248.00,98.42
1247.00,98.45
1246.00,98.47
1245.00,98.49
1244.00,98.51
1243.00,98.54
1242.00,98.56
1241.00,98.58
1240.00,98.59
1239.00,98.61
1238.00,98.62
1237.00,98.64
1236.00,98.65
1235.00,98.66
1234.00,98.67
1233.00,98.68
1232.00,98.69
1231.00,98.70
1230.00,98.70
1229.00,98.71
1228.00,98.71
1227.00,98.72
1226.00,98.72
1225.00,98.72
1224.00,98.73
1223.00,98.73
1222.00,98.74
1221.00,98.74
1220.00,98.74
1219.00,98.74
1218.00,98.74
1217.00,98.74
1216.00,98.74
1215.00,98.74
1214.00,98.74
1213.00,98.74
1212.00,98.74
1211.00,98.74
1210.00,98.74
1209.00,98.73
1208.00,98.73
1207.00,98.73
1206.00,98.72
1205.00,98.72
1204.00,98.71
1203.00,98.71
1202.00,98.69
1201.00,98.68
1200.00,98.67
1199.00,98.65
1198.00,98.63
1197.00,98.61
1196.00,98.58
1195.00,98.55
1194.00,98.51
1193.00,98.46
1192.00,98.42
1191.00,98.38
1190.00,98.34
1189.00,98.30
1188.00,98.27
1187.00,98.24
1186.00,98.21
1185.00,98.18
1184.00,98.15
1183.00,98.11
1182.00,98.06
1181.00,97.98
1180.00,97.89
1179.00,97.77
1178.00,97.61
1177.00,97.42
1176.00,97.18
1175.00,96.89
1174.00,96.52
1173.00,96.06
1172.00,95.51
1171.00,94.85
1170.00,94.08
1169.00,93.20
1168.00,92.25
1167.00,91.27
1166.00,90.30
1165.00,89.41
1164.00,88.64
1163.00,88.04
1162.00,87.63
1161.00,87.43
1160.00,87.41
1159.00,87.56
1158.00,87.86
1157.00,88.26
1156.00,88.73
1155.00,89.23
1154.00,89.73
1153.00,90.21
1152.00,90.65
1151.00,91.05
1150.00,91.40
1149.00,91.69
1148.00,91.92
1147.00,92.10
1146.00,92.22
1145.00,92.28
1144.00,92.27
1143.00,92.19
1142.00,92.04
1141.00,91.81
1140.00,91.47
1139.00,91.04
1138.00,90.50
1137.00,89.84
1136.00,89.08
1135.00,88.25
1134.00,87.38
1133.00,86.54
1132.00,85.76
1131.00,85.11
1130.00,84.64
1129.00,84.36
1128.00,84.32
1127.00,84.50
1126.00,84.90
1125.00,85.46
1124.00,86.12
1123.00,86.80
1122.00,87.44
1121.00,87.98
1120.00,88.38
1119.00,88.65
1118.00,88.78
1117.00,88.80
1116.00,88.73
1115.00,88.61
1114.00,88.45
1113.00,88.29
1112.00,88.13
1111.00,87.99
1110.00,87.89
1109.00,87.82
1108.00,87.80
1107.00,87.83
1106.00,87.93
1105.00,88.09
1104.00,88.32
1103.00,88.62
1102.00,88.98
1101.00,89.39
1100.00,89.84
1099.00,90.31
1098.00,90.81
1097.00,91.30
1096.00,91.79
1095.00,92.27
1094.00,92.74
1093.00,93.19
1092.00,93.61
1091.00,94.02
1090.00,94.39
1089.00,94.75
1088.00,95.07
1087.00,95.38
1086.00,95.66
1085.00,95.91
1084.00,96.15
1083.00,96.36
1082.00,96.55
1081.00,96.72
1080.00,96.88
1079.00,97.02
1078.00,97.16
1077.00,97.27
1076.00,97.38
1075.00,97.48
1074.00,97.57
1073.00,97.66
1072.00,97.73
1071.00,97.80
1070.00,97.87
1069.00,97.93
1068.00,97.99
1067.00,98.04
1066.00,98.09
1065.00,98.14
1064.00,98.19
1063.00,98.23
1062.00,98.27
1061.00,98.31
1060.00,98.35
1059.00,98.38
1058.00,98.41
1057.00,98.44
1056.00,98.46
1055.00,98.48
1054.00,98.50
1053.00,98.52
1052.00,98.54
1051.00,98.55
1050.00,98.57
1049.00,98.59
1048.00,98.61
1047.00,98.62
1046.00,98.63
1045.00,98.65
1044.00,98.66
1043.00,98.67
1042.00,98.68
1041.00,98.68
1040.00,98.69
1039.00,98.70
1038.00,98.71
1037.00,98.71
1036.00,98.73
1035.00,98.74
1034.00,98.75
1033.00,98.76
1032.00,98.77
1031.00,98.78
1030.00,98.79
1029.00,98.81
1028.00,98.82
1027.00,98.83
1026.00,98.84
1025.00,98.84
1024.00,98.85
1023.00,98.85
1022.00,98.86
1021.00,98.87
1020.00,98.88
1019.00,98.88
1018.00,98.89
1017.00,98.89
1016.00,98.89
1015.00,98.90
1014.00,98.90
1013.00,98.90
1012.00,98.90
1011.00,98.91
1010.00,98.91
1009.00,98.90
1008.00,98.90
1007.00,98.90
1006.00,98.90
1005.00,98.90
1004.00,98.89
1003.00,98.89
1002.00,98.88
1001.00,98.88
1000.00,98.87
999.00,98.86
998.00,98.86
997.00,98.85
996.00,98.84
995.00,98.82
994.00,98.81
993.00,98.79
992.00,98.78
991.00,98.76
990.00,98.73
989.00,98.71
988.00,98.68
987.00,98.65
986.00,98.62
985.00,98.58
984.00,98.55
983.00,98.51
982.00,98.47
981.00,98.43
980.00,98.38
979.00,98.34
978.00,98.28
977.00,98.23
976.00,98.16
975.00,98.09
974.00,98.01
973.00,97.92
972.00,97.81
971.00,97.69
970.00,97.54
969.00,97.36
968.00,97.15
967.00,96.89
966.00,96.56
965.00,96.14
964.00,95.59
963.00,94.88
962.00,93.96
961.00,92.76
960.00,91.25
959.00,89.43
958.00,87.32
957.00,85.01
956.00,82.61
955.00,80.26
954.00,78.12
953.00,76.36
952.00,75.15
951.00,74.61
950.00,74.80
949.00,75.65
948.00,77.04
947.00,78.81
946.00,80.81
945.00,82.88
944.00,84.90
943.00,86.78
942.00,88.46
941.00,89.89
940.00,91.07
939.00,92.03
938.00,92.80
937.00,93.44
936.00,93.98
935.00,94.46
934.00,94.90
933.00,95.31
932.00,95.68
931.00,96.02
930.00,96.32
929.00,96.57
928.00,96.78
927.00,96.96
926.00,97.11
925.00,97.23
924.00,97.33
923.00,97.41
922.00,97.49
921.00,97.56
920.00,97.64
919.00,97.73
918.00,97.82
917.00,97.91
916.00,97.99
915.00,98.07
914.00,98.14
913.00,98.20
912.00,98.25
911.00,98.30
910.00,98.34
909.00,98.37
908.00,98.40
907.00,98.43
906.00,98.45
905.00,98.47
904.00,98.49
903.00,98.51
902.00,98.53
901.00,98.55
900.00,98.56
899.00,98.57
898.00,98.58
897.00,98.59
896.00,98.61
895.00,98.62
894.00,98.62
893.00,98.63
892.00,98.63
891.00,98.63
890.00,98.63
889.00,98.63
888.00,98.63
887.00,98.63
886.00,98.63
885.00,98.63
884.00,98.63
883.00,98.62
882.00,98.62
881.00,98.62
880.00,98.61
879.00,98.61
878.00,98.60
877.00,98.59
876.00,98.58
875.00,98.57
874.00,98.57
873.00,98.56
872.00,98.55
871.00,98.54
870.00,98.53
869.00,98.52
868.00,98.50
867.00,98.49
866.00,98.47
865.00,98.46
864.00,98.44
863.00,98.43
862.00,98.42
861.00,98.40
860.00,98.39
859.00,98.37
858.00,98.35
857.00,98.32
856.00,98.30
855.00,98.28
854.00,98.26
853.00,98.24
852.00,98.22
851.00,98.20
850.00,98.18
849.00,98.16
848.00,98.14
847.00,98.12
846.00,98.09
845.00,98.06
844.00,98.03
843.00,98.00
842.00,97.96
841.00,97.93
840.00,97.89
839.00,97.86
838.00,97.82
837.00,97.77
836.00,97.72
835.00,97.67
834.00,97.60
833.00,97.53
832.00,97.45
831.00,97.36
830.00,97.25
829.00,97.13
828.00,96.96
827.00,96.75
826.00,96.47
825.00,96.08
824.00,95.51
823.00,94.68
822.00,93.54
821.00,92.08
820.00,90.41
819.00,88.78
818.00,87.51
817.00,86.85
816.00,86.92
815.00,87.69
814.00,88.98
813.00,90.52
812.00,92.05
811.00,93.40
810.00,94.47
809.00,95.26
808.00,95.82
807.00,96.21
806.00,96.48
805.00,96.66
804.00,96.79
803.00,96.89
802.00,96.95
801.00,96.99
800.00,97.02
799.00,97.03
798.00,97.04
797.00,97.03
796.00,97.02
795.00,97.00
794.00,96.99
793.00,96.97
792.00,96.96
791.00,96.94
790.00,96.91
789.00,96.89
788.00,96.86
787.00,96.83
786.00,96.80
785.00,96.78
784.00,96.75
783.00,96.73
782.00,96.70
781.00,96.66
780.00,96.63
779.00,96.60
778.00,96.56
777.00,96.53
776.00,96.49
775.00,96.46
774.00,96.42
773.00,96.38
772.00,96.35
771.00,96.31
770.00,96.28
769.00,96.25
768.00,96.21
767.00,96.18
766.00,96.14
765.00,96.10
764.00,96.06
763.00,96.03
762.00,95.99
761.00,95.96
760.00,95.92
759.00,95.88
758.00,95.84
757.00,95.79
756.00,95.75
755.00,95.71
754.00,95.68
753.00,95.64
752.00,95.61
751.00,95.57
750.00,95.54
749.00,95.50
748.00,95.46
747.00,95.42
746.00,95.38
745.00,95.34
744.00,95.31
743.00,95.27
742.00,95.23
741.00,95.19
740.00,95.15
739.00,95.10
738.00,95.06
737.00,95.02
736.00,94.97
735.00,94.93
734.00,94.90
733.00,94.87
732.00,94.84
731.00,94.80
730.00,94.75
729.00,94.69
728.00,94.64
727.00,94.60
726.00,94.56
725.00,94.52
724.00,94.48
723.00,94.44
722.00,94.41
721.00,94.38
720.00,94.34
719.00,94.29
718.00,94.24
717.00,94.20
716.00,94.15
715.00,94.10
714.00,94.07
713.00,94.03
712.00,94.00
711.00,93.97
710.00,93.93
709.00,93.88
708.00,93.83
707.00,93.78
706.00,93.74
705.00,93.70
704.00,93.66
703.00,93.62
702.00,93.59
701.00,93.55
700.00,93.51
699.00,93.47
698.00,93.43
697.00,93.40
696.00,93.37
695.00,93.34
694.00,93.30
693.00,93.25
692.00,93.20
691.00,93.15
690.00,93.12
689.00,93.10
688.00,93.07
687.00,93.05
686.00,93.03
685.00,92.99
684.00,92.93
683.00,92.88
682.00,92.84
681.00,92.81
680.00,92.79
679.00,92.77
678.00,92.75
677.00,92.71
676.00,92.67
675.00,92.62
674.00,92.59
673.00,92.56
672.00,92.53
671.00,92.52
670.00,92.51
669.00,92.49
668.00,92.42
667.00,92.36
666.00,92.33
665.00,92.33
664.00,92.32
663.00,92.31
662.00,92.30
661.00,92.27
660.00,92.24
659.00,92.20
658.00,92.18
657.00,92.17
656.00,92.16
655.00,92.16
654.00,92.17
653.00,92.15
652.00,92.11
651.00,92.06
650.00,92.04
649.00,92.04
648.00,92.05
647.00,92.05
646.00,92.05
645.00,92.04
644.00,92.00
643.00,91.96
642.00,91.92
641.00,91.91
640.00,91.92
639.00,91.95
638.00,91.99
637.00,92.01
636.00,92.01
635.00,92.01
634.00,92.02
633.00,92.02
632.00,92.01
631.00,92.01
630.00,92.02
629.00,92.04
628.00,92.04
627.00,92.02
626.00,92.00
625.00,91.98
624.00,91.96
623.00,91.96
622.00,91.99
621.00,92.03
620.00,92.07
619.00,92.11
618.00,92.16
617.00,92.21
616.00,92.24
615.00,92.27
614.00,92.30
613.00,92.30
612.00,92.29
611.00,92.28
610.00,92.31
609.00,92.37
608.00,92.45
607.00,92.53
606.00,92.58
605.00,92.59
604.00,92.56
603.00,92.52
602.00,92.49
601.00,92.47
600.00,92.50
599.00,92.58
598.00,92.66
597.00,92.69
596.00,92.69
595.00,92.70
594.00,92.75
593.00,92.83
592.00,92.88
591.00,92.94
590.00,92.99
589.00,93.00
588.00,92.98
587.00,92.97
586.00,93.02
585.00,93.11
584.00,93.22
583.00,93.31
582.00,93.37
581.00,93.38
580.00,93.33
579.00,93.27
578.00,93.24
577.00,93.27
576.00,93.37
575.00,93.52
574.00,93.65
573.00,93.70
572.00,93.67
571.00,93.65
570.00,93.70
569.00,93.79
568.00,93.90
567.00,93.99
566.00,93.99
565.00,93.89
564.00,93.78
563.00,93.75
562.00,93.82
561.00,93.91
560.00,93.98
559.00,94.09
558.00,94.23
557.00,94.31
556.00,94.23
555.00,94.06
554.00,93.92
553.00,93.88
552.00,93.93
551.00,94.05
550.00,94.23
549.00,94.40
548.00,94.52
547.00,94.56
546.00,94.55
545.00,94.51
544.00,94.49
543.00,94.54
542.00,94.65
541.00,94.71
540.00,94.66
539.00,94.55
538.00,94.50
537.00,94.55
536.00,94.64
535.00,94.71
534.00,94.67
533.00,94.52
532.00,94.33
531.00,94.25
530.00,94.38
529.00,94.63
528.00,94.86
527.00,95.00
526.00,94.98
525.00,94.86
524.00,94.81
523.00,95.05
522.00,95.60
521.00,96.37
520.00,97.33
519.00,98.00
518.00,97.56
517.00,96.64
516.00,95.99
515.00,95.72
514.00,95.47
513.00,95.10
512.00,94.08
511.00,92.94
510.00,91.12
509.00,90.64
508.00,83.28
507.00,76.90
506.00,86.89
505.00,100.87
504.00,97.37
503.00,-12.05
502.00,130.78
501.00,113.54
500.00,106.34
499.00,166.59
498.00,92.88
497.00,85.44
496.00,117.40
495.00,142.26
494.00,62.00
493.00,60.66
492.00,208.78
491.00,149.99
490.00,61.60
489.00,84.01
488.00,106.89
487.00,90.28
486.00,84.61
485.00,92.24
484.00,116.04
483.00,107.30
482.00,105.81
481.00,130.62
480.00,108.44
479.00,58.43
478.00,117.27
477.00,149.64
476.00,110.57
475.00,123.62
474.00,90.50
473.00,76.54
472.00,98.73
471.00,98.91
470.00,100.44
469.00,90.29
468.00,97.06
467.00,107.78
466.00,88.08
465.00,70.00
464.00,138.78
463.00,129.73
462.00,39.91
461.00,71.79
460.00,73.20
459.00,93.90
458.00,53.93
457.00,93.51
456.00,58.59
455.00,95.23
454.00,91.86
453.00,103.42
452.00,96.76
451.00,87.84
450.00,100.88
449.00,179.93
448.00,140.04
447.00,126.43
446.00,98.49
445.00,55.64
444.00,102.39
443.00,98.20
442.00,92.53
441.00,95.30
440.00,74.89
439.00,92.60
438.00,90.01
437.00,102.22
436.00,84.66
435.00,103.48
434.00,392.50
433.00,97.08
432.00,115.14
431.00,88.67
430.00,60.44
429.00,118.18
428.00,92.88
427.00,97.20
426.00,99.23
425.00,98.48
424.00,106.12
423.00,94.73
422.00,103.54
421.00,106.60
420.00,96.87
419.00,91.81
418.00,102.21
417.00,128.63
416.00,72.17
415.00,52.38
414.00,106.09
413.00,97.61
412.00,93.46
411.00,107.26
410.00,97.05
409.00,106.39
408.00,234.22
407.00,120.76
406.00,98.74
405.00,71.76
404.00,40.72
403.00,97.49
402.00,190.91
401.00,136.00
400.00,127.99
