Created as New Dataset,Sample 008 By FTIR User 2.0 Date Friday, April 12 2024
cm-1,%T
4000.00,99.68
3999.00,99.69
3998.00,99.69
3997.00,99.69
3996.00,99.69
3995.00,99.69
3994.00,99.69
3993.00,99.68
3992.00,99.68
3991.00,99.68
3990.00,99.68
3989.00,99.68
3988.00,99.69
3987.00,99.69
3986.00,99.69
3985.00,99.69
3984.00,99.69
3983.00,99.69
3982.00,99.69
3981.00,99.70
3980.00,99.70
3979.00,99.69
3978.00,99.69
3977.00,99.69
3976.00,99.69
3975.00,99.69
3974.00,99.69
3973.00,99.69
3972.00,99.69
3971.00,99.70
3970.00,99.70
3969.00,99.69
3968.00,99.70
3967.00,99.70
3966.00,99.70
3965.00,99.70
3964.00,99.70
3963.00,99.70
3962.00,99.69
3961.00,99.69
3960.00,99.68
3959.00,99.68
3958.00,99.68
3957.00,99.68
3956.00,99.68
3955.00,99.68
3954.00,99.68
3953.00,99.67
3952.00,99.67
3951.00,99.67
3950.00,99.67
3949.00,99.68
3948.00,99.68
3947.00,99.67
3946.00,99.66
3945.00,99.65
3944.00,99.65
3943.00,99.66
3942.00,99.67
3941.00,99.68
3940.00,99.68
3939.00,99.68
3938.00,99.68
3937.00,99.68
3936.00,99.68
3935.00,99.67
3934.00,99.67
3933.00,99.67
3932.00,99.67
3931.00,99.67
3930.00,99.67
3929.00,99.66
3928.00,99.65
3927.00,99.65
3926.00,99.65
3925.00,99.65
3924.00,99.66
3923.00,99.66
3922.00,99.66
3921.00,99.65
3920.00,99.64
3919.00,99.64
3918.00,99.64
3917.00,99.65
3916.00,99.66
3915.00,99.67
3914.00,99.68
3913.00,99.68
3912.00,99.68
3911.00,99.68
3910.00,99.68
3909.00,99.67
3908.00,99.66
3907.00,99.65
3906.00,99.64
3905.00,99.62
3904.00,99.61
3903.00,99.59
3902.00,99.57
3901.00,99.56
3900.00,99.56
3899.00,99.57
3898.00,99.58
3897.00,99.60
3896.00,99.61
3895.00,99.61
3894.00,99.62
3893.00,99.63
3892.00,99.64
3891.00,99.65
3890.00,99.64
3889.00,99.63
3888.00,99.62
3887.00,99.62
3886.00,99.61
3885.00,99.61
3884.00,99.61
3883.00,99.61
3882.00,99.61
3881.00,99.61
3880.00,99.62
3879.00,99.63
3878.00,99.63
3877.00,99.63
3876.00,99.62
3875.00,99.62
3874.00,99.61
3873.00,99.61
3872.00,99.61
3871.00,99.60
3870.00,99.58
3869.00,99.56
3868.00,99.55
3867.00,99.56
3866.00,99.56
3865.00,99.57
3864.00,99.59
3863.00,99.61
3862.00,99.62
3861.00,99.62
3860.00,99.61
3859.00,99.60
3858.00,99.58
3857.00,99.56
3856.00,99.54
3855.00,99.53
3854.00,99.52
3853.00,99.51
3852.00,99.50
3851.00,99.51
3850.00,99.54
3849.00,99.57
3848.00,99.59
3847.00,99.60
3846.00,99.61
3845.00,99.62
3844.00,99.63
3843.00,99.62
3842.00,99.61
3841.00,99.60
3840.00,99.59
3839.00,99.57
3838.00,99.56
3837.00,99.54
3836.00,99.53
3835.00,99.54
3834.00,99.55
3833.00,99.56
3832.00,99.58
3831.00,99.59
3830.00,99.60
3829.00,99.61
3828.00,99.62
3827.00,99.62
3826.00,99.62
3825.00,99.60
3824.00,99.59
3823.00,99.59
3822.00,99.58
3821.00,99.57
3820.00,99.55
3819.00,99.54
3818.00,99.54
3817.00,99.54
3816.00,99.55
3815.00,99.56
3814.00,99.58
3813.00,99.61
3812.00,99.62
3811.00,99.62
3810.00,99.63
3809.00,99.63
3808.00,99.64
3807.00,99.63
3806.00,99.61
3805.00,99.59
3804.00,99.57
3803.00,99.56
3802.00,99.55
3801.00,99.54
3800.00,99.54
3799.00,99.55
3798.00,99.55
3797.00,99.56
3796.00,99.57
3795.00,99.59
3794.00,99.61
3793.00,99.62
3792.00,99.64
3791.00,99.65
3790.00,99.66
3789.00,99.66
3788.00,99.67
3787.00,99.67
3786.00,99.67
3785.00,99.66
3784.00,99.66
3783.00,99.65
3782.00,99.63
3781.00,99.63
3780.00,99.62
3779.00,99.63
3778.00,99.63
3777.00,99.64
3776.00,99.63
3775.00,99.63
3774.00,99.62
3773.00,99.62
3772.00,99.62
3771.00,99.62
3770.00,99.62
3769.00,99.60
3768.00,99.59
3767.00,99.58
3766.00,99.58
3765.00,99.57
3764.00,99.57
3763.00,99.57
3762.00,99.57
3761.00,99.56
3760.00,99.56
3759.00,99.56
3758.00,99.56
3757.00,99.54
3756.00,99.52
3755.00,99.50
3754.00,99.47
3753.00,99.45
3752.00,99.43
3751.00,99.42
3750.00,99.40
3749.00,99.35
3748.00,99.32
3747.00,99.30
3746.00,99.30
3745.00,99.31
3744.00,99.33
3743.00,99.35
3742.00,99.38
3741.00,99.40
3740.00,99.40
3739.00,99.39
3738.00,99.39
3737.00,99.39
3736.00,99.38
3735.00,99.37
3734.00,99.36
3733.00,99.35
3732.00,99.35
3731.00,99.36
3730.00,99.36
3729.00,99.37
3728.00,99.38
3727.00,99.39
3726.00,99.39
3725.00,99.40
3724.00,99.41
3723.00,99.41
3722.00,99.40
3721.00,99.40
3720.00,99.40
3719.00,99.40
3718.00,99.40
3717.00,99.39
3716.00,99.37
3715.00,99.36
3714.00,99.34
3713.00,99.33
3712.00,99.32
3711.00,99.30
3710.00,99.29
3709.00,99.28
3708.00,99.28
3707.00,99.29
3706.00,99.29
3705.00,99.29
3704.00,99.29
3703.00,99.28
3702.00,99.27
3701.00,99.26
3700.00,99.24
3699.00,99.22
3698.00,99.21
3697.00,99.20
3696.00,99.19
3695.00,99.17
3694.00,99.15
3693.00,99.11
3692.00,99.08
3691.00,99.04
3690.00,98.99
3689.00,98.93
3688.00,98.85
3687.00,98.79
3686.00,98.75
3685.00,98.72
3684.00,98.68
3683.00,98.64
3682.00,98.58
3681.00,98.52
3680.00,98.44
3679.00,98.36
3678.00,98.28
3677.00,98.19
3676.00,98.05
3675.00,97.90
3674.00,97.78
3673.00,97.70
3672.00,97.64
3671.00,97.57
3670.00,97.51
3669.00,97.47
3668.00,97.44
3667.00,97.41
3666.00,97.38
3665.00,97.33
3664.00,97.28
3663.00,97.22
3662.00,97.16
3661.00,97.10
3660.00,97.04
3659.00,96.98
3658.00,96.91
3657.00,96.84
3656.00,96.76
3655.00,96.68
3654.00,96.61
3653.00,96.55
3652.00,96.48
3651.00,96.41
3650.00,96.34
3649.00,96.26
3648.00,96.18
3647.00,96.11
3646.00,96.07
3645.00,96.05
3644.00,96.04
3643.00,96.02
3642.00,96.00
3641.00,95.96
3640.00,95.91
3639.00,95.84
3638.00,95.76
3637.00,95.69
3636.00,95.65
3635.00,95.63
3634.00,95.63
3633.00,95.61
3632.00,95.57
3631.00,95.51
3630.00,95.44
3629.00,95.35
3628.00,95.25
3627.00,95.18
3626.00,95.12
3625.00,95.06
3624.00,95.00
3623.00,94.93
3622.00,94.86
3621.00,94.77
3620.00,94.67
3619.00,94.56
3618.00,94.45
3617.00,94.35
3616.00,94.26
3615.00,94.17
3614.00,94.07
3613.00,93.97
3612.00,93.88
3611.00,93.78
3610.00,93.68
3609.00,93.58
3608.00,93.48
3607.00,93.39
3606.00,93.30
3605.00,93.21
3604.00,93.12
3603.00,93.02
3602.00,92.92
3601.00,92.81
3600.00,92.69
3599.00,92.58
3598.00,92.46
3597.00,92.34
3596.00,92.21
3595.00,92.08
3594.00,91.96
3593.00,91.84
3592.00,91.73
3591.00,91.63
3590.00,91.51
3589.00,91.38
3588.00,91.23
3587.00,91.07
3586.00,90.92
3585.00,90.80
3584.00,90.70
3583.00,90.59
3582.00,90.49
3581.00,90.37
3580.00,90.25
3579.00,90.13
3578.00,90.01
3577.00,89.88
3576.00,89.75
3575.00,89.62
3574.00,89.48
3573.00,89.35
3572.00,89.21
3571.00,89.07
3570.00,88.93
3569.00,88.78
3568.00,88.63
3567.00,88.47
3566.00,88.31
3565.00,88.17
3564.00,88.04
3563.00,87.91
3562.00,87.79
3561.00,87.66
3560.00,87.53
3559.00,87.41
3558.00,87.28
3557.00,87.15
3556.00,87.02
3555.00,86.88
3554.00,86.74
3553.00,86.58
3552.00,86.43
3551.00,86.29
3550.00,86.15
3549.00,86.00
3548.00,85.85
3547.00,85.68
3546.00,85.52
3545.00,85.37
3544.00,85.24
3543.00,85.13
3542.00,85.02
3541.00,84.91
3540.00,84.78
3539.00,84.64
3538.00,84.49
3537.00,84.35
3536.00,84.21
3535.00,84.08
3534.00,83.96
3533.00,83.84
3532.00,83.70
3531.00,83.57
3530.00,83.42
3529.00,83.28
3528.00,83.14
3527.00,82.99
3526.00,82.84
3525.00,82.68
3524.00,82.54
3523.00,82.41
3522.00,82.30
3521.00,82.19
3520.00,82.07
3519.00,81.94
3518.00,81.81
3517.00,81.66
3516.00,81.52
3515.00,81.38
3514.00,81.24
3513.00,81.11
3512.00,80.99
3511.00,80.86
3510.00,80.74
3509.00,80.60
3508.00,80.47
3507.00,80.34
3506.00,80.19
3505.00,80.03
3504.00,79.87
3503.00,79.72
3502.00,79.59
3501.00,79.47
3500.00,79.36
3499.00,79.23
3498.00,79.10
3497.00,78.96
3496.00,78.84
3495.00,78.72
3494.00,78.60
3493.00,78.49
3492.00,78.37
3491.00,78.25
3490.00,78.12
3489.00,77.97
3488.00,77.83
3487.00,77.70
3486.00,77.58
3485.00,77.48
3484.00,77.36
3483.00,77.23
3482.00,77.09
3481.00,76.94
3480.00,76.81
3479.00,76.70
3478.00,76.60
3477.00,76.50
3476.00,76.39
3475.00,76.27
3474.00,76.14
3473.00,76.01
3472.00,75.86
3471.00,75.70
3470.00,75.55
3469.00,75.40
3468.00,75.28
3467.00,75.17
3466.00,75.08
3465.00,74.99
3464.00,74.89
3463.00,74.77
3462.00,74.65
3461.00,74.52
3460.00,74.40
3459.00,74.31
3458.00,74.22
3457.00,74.12
3456.00,74.01
3455.00,73.89
3454.00,73.77
3453.00,73.66
3452.00,73.54
3451.00,73.41
3450.00,73.28
3449.00,73.15
3448.00,73.02
3447.00,72.90
3446.00,72.79
3445.00,72.70
3444.00,72.60
3443.00,72.49
3442.00,72.37
3441.00,72.24
3440.00,72.10
3439.00,71.95
3438.00,71.80
3437.00,71.66
3436.00,71.54
3435.00,71.44
3434.00,71.34
3433.00,71.24
3432.00,71.14
3431.00,71.02
3430.00,70.92
3429.00,70.82
3428.00,70.74
3427.00,70.66
3426.00,70.57
3425.00,70.48
3424.00,70.37
3423.00,70.26
3422.00,70.15
3421.00,70.04
3420.00,69.94
3419.00,69.85
3418.00,69.76
3417.00,69.65
3416.00,69.53
3415.00,69.40
3414.00,69.28
3413.00,69.16
3412.00,69.06
3411.00,68.97
3410.00,68.88
3409.00,68.79
3408.00,68.70
3407.00,68.62
3406.00,68.53
3405.00,68.43
3404.00,68.31
3403.00,68.17
3402.00,68.04
3401.00,67.93
3400.00,67.85
3399.00,67.78
3398.00,67.72
3397.00,67.66
3396.00,67.57
3395.00,67.47
3394.00,67.37
3393.00,67.27
3392.00,67.19
3391.00,67.13
3390.00,67.09
3389.00,67.06
3388.00,67.01
3387.00,66.95
3386.00,66.88
3385.00,66.81
3384.00,66.73
3383.00,66.65
3382.00,66.57
3381.00,66.48
3380.00,66.40
3379.00,66.32
3378.00,66.25
3377.00,66.18
3376.00,66.12
3375.00,66.06
3374.00,65.99
3373.00,65.91
3372.00,65.81
3371.00,65.71
3370.00,65.62
3369.00,65.54
3368.00,65.49
3367.00,65.46
3366.00,65.44
3365.00,65.43
3364.00,65.40
3363.00,65.35
3362.00,65.29
3361.00,65.23
3360.00,65.19
3359.00,65.17
3358.00,65.14
3357.00,65.12
3356.00,65.07
3355.00,65.02
3354.00,64.95
3353.00,64.88
3352.00,64.81
3351.00,64.75
3350.00,64.72
3349.00,64.71
3348.00,64.71
3347.00,64.69
3346.00,64.64
3345.00,64.59
3344.00,64.53
3343.00,64.48
3342.00,64.44
3341.00,64.40
3340.00,64.36
3339.00,64.32
3338.00,64.30
3337.00,64.29
3336.00,64.31
3335.00,64.32
3334.00,64.32
3333.00,64.32
3332.00,64.30
3331.00,64.27
3330.00,64.24
3329.00,64.20
3328.00,64.15
3327.00,64.10
3326.00,64.07
3325.00,64.05
3324.00,64.05
3323.00,64.06
3322.00,64.07
3321.00,64.07
3320.00,64.06
3319.00,64.05
3318.00,64.04
3317.00,64.02
3316.00,64.00
3315.00,63.98
3314.00,63.95
3313.00,63.93
3312.00,63.89
3311.00,63.85
3310.00,63.80
3309.00,63.76
3308.00,63.73
3307.00,63.72
3306.00,63.72
3305.00,63.74
3304.00,63.76
3303.00,63.79
3302.00,63.82
3301.00,63.83
3300.00,63.82
3299.00,63.80
3298.00,63.77
3297.00,63.74
3296.00,63.72
3295.00,63.71
3294.00,63.70
3293.00,63.71
3292.00,63.72
3291.00,63.76
3290.00,63.80
3289.00,63.84
3288.00,63.86
3287.00,63.87
3286.00,63.88
3285.00,63.88
3284.00,63.89
3283.00,63.89
3282.00,63.90
3281.00,63.91
3280.00,63.91
3279.00,63.91
3278.00,63.91
3277.00,63.89
3276.00,63.88
3275.00,63.87
3274.00,63.87
3273.00,63.87
3272.00,63.87
3271.00,63.89
3270.00,63.93
3269.00,63.99
3268.00,64.05
3267.00,64.11
3266.00,64.15
3265.00,64.18
3264.00,64.21
3263.00,64.24
3262.00,64.27
3261.00,64.29
3260.00,64.31
3259.00,64.32
3258.00,64.33
3257.00,64.34
3256.00,64.36
3255.00,64.40
3254.00,64.46
3253.00,64.52
3252.00,64.57
3251.00,64.60
3250.00,64.62
3249.00,64.63
3248.00,64.64
3247.00,64.67
3246.00,64.73
3245.00,64.81
3244.00,64.89
3243.00,64.97
3242.00,65.04
3241.00,65.10
3240.00,65.16
3239.00,65.21
3238.00,65.25
3237.00,65.28
3236.00,65.30
3235.00,65.32
3234.00,65.37
3233.00,65.44
3232.00,65.53
3231.00,65.64
3230.00,65.75
3229.00,65.85
3228.00,65.94
3227.00,66.02
3226.00,66.10
3225.00,66.17
3224.00,66.25
3223.00,66.32
3222.00,66.39
3221.00,66.45
3220.00,66.53
3219.00,66.62
3218.00,66.71
3217.00,66.81
3216.00,66.90
3215.00,66.99
3214.00,67.09
3213.00,67.20
3212.00,67.31
3211.00,67.41
3210.00,67.51
3209.00,67.60
3208.00,67.70
3207.00,67.79
3206.00,67.90
3205.00,68.01
3204.00,68.12
3203.00,68.23
3202.00,68.34
3201.00,68.46
3200.00,68.57
3199.00,68.69
3198.00,68.81
3197.00,68.93
3196.00,69.06
3195.00,69.17
3194.00,69.29
3193.00,69.40
3192.00,69.51
3191.00,69.62
3190.00,69.74
3189.00,69.87
3188.00,70.00
3187.00,70.14
3186.00,70.27
3185.00,70.40
3184.00,70.53
3183.00,70.66
3182.00,70.79
3181.00,70.92
3180.00,71.05
3179.00,71.18
3178.00,71.33
3177.00,71.47
3176.00,71.62
3175.00,71.76
3174.00,71.90
3173.00,72.04
3172.00,72.17
3171.00,72.31
3170.00,72.45
3169.00,72.59
3168.00,72.73
3167.00,72.87
3166.00,73.01
3165.00,73.16
3164.00,73.30
3163.00,73.44
3162.00,73.58
3161.00,73.72
3160.00,73.87
3159.00,74.00
3158.00,74.14
3157.00,74.27
3156.00,74.39
3155.00,74.50
3154.00,74.62
3153.00,74.75
3152.00,74.91
3151.00,75.09
3150.00,75.27
3149.00,75.45
3148.00,75.61
3147.00,75.77
3146.00,75.92
3145.00,76.07
3144.00,76.21
3143.00,76.34
3142.00,76.46
3141.00,76.58
3140.00,76.71
3139.00,76.86
3138.00,77.02
3137.00,77.20
3136.00,77.37
3135.00,77.53
3134.00,77.68
3133.00,77.83
3132.00,77.97
3131.00,78.10
3130.00,78.24
3129.00,78.39
3128.00,78.55
3127.00,78.70
3126.00,78.85
3125.00,78.99
3124.00,79.11
3123.00,79.23
3122.00,79.35
3121.00,79.47
3120.00,79.61
3119.00,79.74
3118.00,79.88
3117.00,80.03
3116.00,80.19
3115.00,80.35
3114.00,80.51
3113.00,80.67
3112.00,80.81
3111.00,80.94
3110.00,81.07
3109.00,81.21
3108.00,81.35
3107.00,81.51
3106.00,81.66
3105.00,81.81
3104.00,81.94
3103.00,82.06
3102.00,82.19
3101.00,82.31
3100.00,82.45
3099.00,82.59
3098.00,82.73
3097.00,82.88
3096.00,83.02
3095.00,83.15
3094.00,83.28
3093.00,83.40
3092.00,83.51
3091.00,83.62
3090.00,83.74
3089.00,83.87
3088.00,83.99
3087.00,84.12
3086.00,84.24
3085.00,84.36
3084.00,84.48
3083.00,84.60
3082.00,84.72
3081.00,84.84
3080.00,84.96
3079.00,85.08
3078.00,85.21
3077.00,85.35
3076.00,85.48
3075.00,85.61
3074.00,85.74
3073.00,85.85
3072.00,85.97
3071.00,86.07
3070.00,86.18
3069.00,86.27
3068.00,86.38
3067.00,86.48
3066.00,86.60
3065.00,86.72
3064.00,86.85
3063.00,86.96
3062.00,87.08
3061.00,87.19
3060.00,87.29
3059.00,87.39
3058.00,87.48
3057.00,87.58
3056.00,87.68
3055.00,87.78
3054.00,87.88
3053.00,87.98
3052.00,88.08
3051.00,88.18
3050.00,88.28
3049.00,88.37
3048.00,88.47
3047.00,88.56
3046.00,88.65
3045.00,88.74
3044.00,88.82
3043.00,88.91
3042.00,89.00
3041.00,89.09
3040.00,89.18
3039.00,89.27
3038.00,89.36
3037.00,89.44
3036.00,89.52
3035.00,89.59
3034.00,89.67
3033.00,89.75
3032.00,89.83
3031.00,89.91
3030.00,89.99
3029.00,90.06
3028.00,90.13
3027.00,90.19
3026.00,90.25
3025.00,90.31
3024.00,90.36
3023.00,90.41
3022.00,90.45
3021.00,90.48
3020.00,90.51
3019.00,90.53
3018.00,90.54
3017.00,90.53
3016.00,90.51
3015.00,90.47
3014.00,90.42
3013.00,90.35
3012.00,90.26
3011.00,90.16
3010.00,90.04
3009.00,89.89
3008.00,89.73
3007.00,89.54
3006.00,89.33
3005.00,89.11
3004.00,88.88
3003.00,88.64
3002.00,88.41
3001.00,88.18
3000.00,87.95
2999.00,87.74
2998.00,87.54
2997.00,87.37
2996.00,87.21
2995.00,87.07
2994.00,86.93
2993.00,86.80
2992.00,86.67
2991.00,86.55
2990.00,86.43
2989.00,86.30
2988.00,86.14
2987.00,85.92
2986.00,85.57
2985.00,85.02
2984.00,84.30
2983.00,83.54
2982.00,82.94
2981.00,82.66
2980.00,82.69
2979.00,82.94
2978.00,83.28
2977.00,83.62
2976.00,83.88
2975.00,84.03
2974.00,84.04
2973.00,83.96
2972.00,83.88
2971.00,83.91
2970.00,84.08
2969.00,84.35
2968.00,84.62
2967.00,84.86
2966.00,85.06
2965.00,85.23
2964.00,85.38
2963.00,85.51
2962.00,85.61
2961.00,85.69
2960.00,85.76
2959.00,85.81
2958.00,85.85
2957.00,85.88
2956.00,85.89
2955.00,85.91
2954.00,85.92
2953.00,85.94
2952.00,85.95
2951.00,85.95
2950.00,85.94
2949.00,85.92
2948.00,85.90
2947.00,85.88
2946.00,85.88
2945.00,85.87
2944.00,85.86
2943.00,85.84
2942.00,85.79
2941.00,85.73
2940.00,85.66
2939.00,85.59
2938.00,85.52
2937.00,85.46
2936.00,85.40
2935.00,85.34
2934.00,85.28
2933.00,85.22
2932.00,85.18
2931.00,85.16
2930.00,85.16
2929.00,85.18
2928.00,85.23
2927.00,85.28
2926.00,85.34
2925.00,85.40
2924.00,85.47
2923.00,85.53
2922.00,85.59
2921.00,85.65
2920.00,85.70
2919.00,85.75
2918.00,85.79
2917.00,85.83
2916.00,85.87
2915.00,85.91
2914.00,85.95
2913.00,85.98
2912.00,86.01
2911.00,86.03
2910.00,86.04
2909.00,86.06
2908.00,86.07
2907.00,86.08
2906.00,86.09
2905.00,86.10
2904.00,86.10
2903.00,86.11
2902.00,86.12
2901.00,86.14
2900.00,86.15
2899.00,86.17
2898.00,86.18
2897.00,86.18
2896.00,86.17
2895.00,86.15
2894.00,86.12
2893.00,86.09
2892.00,86.06
2891.00,86.04
2890.00,86.05
2889.00,86.08
2888.00,86.14
2887.00,86.21
2886.00,86.28
2885.00,86.35
2884.00,86.43
2883.00,86.56
2882.00,86.73
2881.00,86.94
2880.00,87.17
2879.00,87.39
2878.00,87.60
2877.00,87.79
2876.00,87.96
2875.00,88.12
2874.00,88.27
2873.00,88.40
2872.00,88.54
2871.00,88.67
2870.00,88.80
2869.00,88.94
2868.00,89.08
2867.00,89.23
2866.00,89.37
2865.00,89.51
2864.00,89.66
2863.00,89.80
2862.00,89.95
2861.00,90.10
2860.00,90.25
2859.00,90.39
2858.00,90.52
2857.00,90.65
2856.00,90.77
2855.00,90.89
2854.00,91.00
2853.00,91.10
2852.00,91.21
2851.00,91.32
2850.00,91.42
2849.00,91.52
2848.00,91.62
2847.00,91.71
2846.00,91.79
2845.00,91.88
2844.00,91.96
2843.00,92.05
2842.00,92.13
2841.00,92.21
2840.00,92.29
2839.00,92.36
2838.00,92.42
2837.00,92.48
2836.00,92.53
2835.00,92.59
2834.00,92.64
2833.00,92.70
2832.00,92.75
2831.00,92.80
2830.00,92.86
2829.00,92.91
2828.00,92.97
2827.00,93.02
2826.00,93.08
2825.00,93.14
2824.00,93.19
2823.00,93.23
2822.00,93.28
2821.00,93.33
2820.00,93.38
2819.00,93.43
2818.00,93.48
2817.00,93.53
2816.00,93.57
2815.00,93.61
2814.00,93.66
2813.00,93.71
2812.00,93.76
2811.00,93.81
2810.00,93.85
2809.00,93.89
2808.00,93.92
2807.00,93.96
2806.00,93.99
2805.00,94.03
2804.00,94.07
2803.00,94.10
2802.00,94.14
2801.00,94.18
2800.00,94.21
2799.00,94.25
2798.00,94.28
2797.00,94.31
2796.00,94.34
2795.00,94.36
2794.00,94.39
2793.00,94.42
2792.00,94.46
2791.00,94.49
2790.00,94.52
2789.00,94.54
2788.00,94.56
2787.00,94.58
2786.00,94.60
2785.00,94.62
2784.00,94.64
2783.00,94.67
2782.00,94.69
2781.00,94.72
2780.00,94.74
2779.00,94.77
2778.00,94.79
2777.00,94.82
2776.00,94.85
2775.00,94.87
2774.00,94.88
2773.00,94.90
2772.00,94.91
2771.00,94.92
2770.00,94.94
2769.00,94.96
2768.00,94.98
2767.00,94.99
2766.00,95.01
2765.00,95.03
2764.00,95.04
2763.00,95.06
2762.00,95.08
2761.00,95.10
2760.00,95.12
2759.00,95.13
2758.00,95.15
2757.00,95.17
2756.00,95.18
2755.00,95.20
2754.00,95.21
2753.00,95.23
2752.00,95.25
2751.00,95.27
2750.00,95.29
2749.00,95.31
2748.00,95.32
2747.00,95.33
2746.00,95.33
2745.00,95.34
2744.00,95.35
2743.00,95.35
2742.00,95.37
2741.00,95.38
2740.00,95.39
2739.00,95.41
2738.00,95.42
2737.00,95.43
2736.00,95.44
2735.00,95.45
2734.00,95.46
2733.00,95.47
2732.00,95.49
2731.00,95.50
2730.00,95.52
2729.00,95.54
2728.00,95.57
2727.00,95.59
2726.00,95.61
2725.00,95.62
2724.00,95.63
2723.00,95.64
2722.00,95.64
2721.00,95.65
2720.00,95.66
2719.00,95.67
2718.00,95.69
2717.00,95.71
2716.00,95.72
2715.00,95.74
2714.00,95.75
2713.00,95.77
2712.00,95.78
2711.00,95.80
2710.00,95.82
2709.00,95.83
2708.00,95.85
2707.00,95.86
2706.00,95.88
2705.00,95.89
2704.00,95.91
2703.00,95.92
2702.00,95.94
2701.00,95.95
2700.00,95.97
2699.00,95.98
2698.00,95.99
2697.00,96.00
2696.00,96.02
2695.00,96.03
2694.00,96.05
2693.00,96.06
2692.00,96.07
2691.00,96.09
2690.00,96.10
2689.00,96.12
2688.00,96.13
2687.00,96.14
2686.00,96.15
2685.00,96.17
2684.00,96.19
2683.00,96.20
2682.00,96.22
2681.00,96.24
2680.00,96.26
2679.00,96.28
2678.00,96.29
2677.00,96.31
2676.00,96.32
2675.00,96.33
2674.00,96.34
2673.00,96.35
2672.00,96.36
2671.00,96.38
2670.00,96.39
2669.00,96.40
2668.00,96.41
2667.00,96.43
2666.00,96.44
2665.00,96.45
2664.00,96.47
2663.00,96.49
2662.00,96.51
2661.00,96.53
2660.00,96.55
2659.00,96.58
2658.00,96.60
2657.00,96.62
2656.00,96.63
2655.00,96.65
2654.00,96.67
2653.00,96.69
2652.00,96.71
2651.00,96.73
2650.00,96.74
2649.00,96.76
2648.00,96.78
2647.00,96.80
2646.00,96.82
2645.00,96.84
2644.00,96.85
2643.00,96.87
2642.00,96.89
2641.00,96.92
2640.00,96.94
2639.00,96.96
2638.00,96.99
2637.00,97.01
2636.00,97.03
2635.00,97.05
2634.00,97.08
2633.00,97.10
2632.00,97.11
2631.00,97.13
2630.00,97.14
2629.00,97.16
2628.00,97.18
2627.00,97.20
2626.00,97.22
2625.00,97.24
2624.00,97.26
2623.00,97.27
2622.00,97.29
2621.00,97.31
2620.00,97.32
2619.00,97.34
2618.00,97.35
2617.00,97.37
2616.00,97.39
2615.00,97.40
2614.00,97.42
2613.00,97.43
2612.00,97.44
2611.00,97.45
2610.00,97.46
2609.00,97.46
2608.00,97.47
2607.00,97.47
2606.00,97.49
2605.00,97.50
2604.00,97.51
2603.00,97.52
2602.00,97.53
2601.00,97.55
2600.00,97.56
2599.00,97.57
2598.00,97.57
2597.00,97.58
2596.00,97.59
2595.00,97.60
2594.00,97.61
2593.00,97.61
2592.00,97.62
2591.00,97.62
2590.00,97.63
2589.00,97.64
2588.00,97.65
2587.00,97.65
2586.00,97.66
2585.00,97.67
2584.00,97.67
2583.00,97.68
2582.00,97.69
2581.00,97.70
2580.00,97.70
2579.00,97.71
2578.00,97.71
2577.00,97.72
2576.00,97.72
2575.00,97.72
2574.00,97.73
2573.00,97.73
2572.00,97.74
2571.00,97.74
2570.00,97.75
2569.00,97.76
2568.00,97.76
2567.00,97.77
2566.00,97.78
2565.00,97.78
2564.00,97.78
2563.00,97.79
2562.00,97.79
2561.00,97.80
2560.00,97.80
2559.00,97.81
2558.00,97.82
2557.00,97.82
2556.00,97.82
2555.00,97.83
2554.00,97.83
2553.00,97.84
2552.00,97.84
2551.00,97.84
2550.00,97.85
2549.00,97.85
2548.00,97.86
2547.00,97.86
2546.00,97.87
2545.00,97.88
2544.00,97.88
2543.00,97.88
2542.00,97.89
2541.00,97.89
2540.00,97.90
2539.00,97.90
2538.00,97.91
2537.00,97.91
2536.00,97.91
2535.00,97.92
2534.00,97.92
2533.00,97.93
2532.00,97.93
2531.00,97.93
2530.00,97.94
2529.00,97.94
2528.00,97.94
2527.00,97.95
2526.00,97.96
2525.00,97.96
2524.00,97.97
2523.00,97.97
2522.00,97.97
2521.00,97.97
2520.00,97.97
2519.00,97.98
2518.00,97.98
2517.00,97.99
2516.00,97.99
2515.00,98.00
2514.00,98.00
2513.00,98.00
2512.00,98.01
2511.00,98.01
2510.00,98.02
2509.00,98.02
2508.00,98.03
2507.00,98.03
2506.00,98.04
2505.00,98.04
2504.00,98.04
2503.00,98.04
2502.00,98.05
2501.00,98.05
2500.00,98.05
2499.00,98.06
2498.00,98.06
2497.00,98.07
2496.00,98.07
2495.00,98.08
2494.00,98.08
2493.00,98.09
2492.00,98.10
2491.00,98.11
2490.00,98.11
2489.00,98.12
2488.00,98.12
2487.00,98.12
2486.00,98.13
2485.00,98.13
2484.00,98.14
2483.00,98.15
2482.00,98.16
2481.00,98.16
2480.00,98.17
2479.00,98.17
2478.00,98.18
2477.00,98.19
2476.00,98.20
2475.00,98.20
2474.00,98.21
2473.00,98.22
2472.00,98.22
2471.00,98.23
2470.00,98.24
2469.00,98.26
2468.00,98.26
2467.00,98.27
2466.00,98.28
2465.00,98.28
2464.00,98.28
2463.00,98.28
2462.00,98.29
2461.00,98.30
2460.00,98.30
2459.00,98.31
2458.00,98.31
2457.00,98.32
2456.00,98.33
2455.00,98.34
2454.00,98.34
2453.00,98.35
2452.00,98.36
2451.00,98.36
2450.00,98.37
2449.00,98.38
2448.00,98.39
2447.00,98.39
2446.00,98.40
2445.00,98.41
2444.00,98.42
2443.00,98.43
2442.00,98.44
2441.00,98.44
2440.00,98.45
2439.00,98.46
2438.00,98.47
2437.00,98.47
2436.00,98.48
2435.00,98.49
2434.00,98.50
2433.00,98.51
2432.00,98.51
2431.00,98.52
2430.00,98.53
2429.00,98.54
2428.00,98.54
2427.00,98.54
2426.00,98.54
2425.00,98.55
2424.00,98.55
2423.00,98.56
2422.00,98.57
2421.00,98.58
2420.00,98.58
2419.00,98.59
2418.00,98.59
2417.00,98.60
2416.00,98.60
2415.00,98.60
2414.00,98.61
2413.00,98.61
2412.00,98.61
2411.00,98.62
2410.00,98.62
2409.00,98.63
2408.00,98.64
2407.00,98.64
2406.00,98.64
2405.00,98.65
2404.00,98.65
2403.00,98.65
2402.00,98.65
2401.00,98.66
2400.00,98.66
2399.00,98.66
2398.00,98.66
2397.00,98.67
2396.00,98.67
2395.00,98.67
2394.00,98.68
2393.00,98.68
2392.00,98.68
2391.00,98.68
2390.00,98.68
2389.00,98.68
2388.00,98.68
2387.00,98.68
2386.00,98.67
2385.00,98.67
2384.00,98.67
2383.00,98.67
2382.00,98.68
2381.00,98.69
2380.00,98.71
2379.00,98.73
2378.00,98.75
2377.00,98.77
2376.00,98.77
2375.00,98.76
2374.00,98.74
2373.00,98.73
2372.00,98.71
2371.00,98.71
2370.00,98.72
2369.00,98.72
2368.00,98.73
2367.00,98.72
2366.00,98.72
2365.00,98.71
2364.00,98.70
2363.00,98.70
2362.00,98.71
2361.00,98.72
2360.00,98.72
2359.00,98.72
2358.00,98.71
2357.00,98.71
2356.00,98.71
2355.00,98.71
2354.00,98.72
2353.00,98.74
2352.00,98.74
2351.00,98.73
2350.00,98.71
2349.00,98.68
2348.00,98.66
2347.00,98.67
2346.00,98.69
2345.00,98.71
2344.00,98.70
2343.00,98.68
2342.00,98.67
2341.00,98.68
2340.00,98.69
2339.00,98.69
2338.00,98.70
2337.00,98.70
2336.00,98.70
2335.00,98.70
2334.00,98.70
2333.00,98.71
2332.00,98.71
2331.00,98.71
2330.00,98.70
2329.00,98.68
2328.00,98.65
2327.00,98.63
2326.00,98.61
2325.00,98.61
2324.00,98.61
2323.00,98.62
2322.00,98.63
2321.00,98.64
2320.00,98.64
2319.00,98.63
2318.00,98.62
2317.00,98.62
2316.00,98.61
2315.00,98.60
2314.00,98.61
2313.00,98.61
2312.00,98.61
2311.00,98.61
2310.00,98.61
2309.00,98.61
2308.00,98.60
2307.00,98.60
2306.00,98.60
2305.00,98.60
2304.00,98.59
2303.00,98.58
2302.00,98.57
2301.00,98.56
2300.00,98.56
2299.00,98.56
2298.00,98.57
2297.00,98.57
2296.00,98.57
2295.00,98.57
2294.00,98.57
2293.00,98.57
2292.00,98.57
2291.00,98.57
2290.00,98.57
2289.00,98.57
2288.00,98.56
2287.00,98.56
2286.00,98.55
2285.00,98.55
2284.00,98.55
2283.00,98.55
2282.00,98.55
2281.00,98.55
2280.00,98.55
2279.00,98.55
2278.00,98.54
2277.00,98.54
2276.00,98.54
2275.00,98.54
2274.00,98.54
2273.00,98.54
2272.00,98.53
2271.00,98.52
2270.00,98.52
2269.00,98.51
2268.00,98.51
2267.00,98.50
2266.00,98.50
2265.00,98.50
2264.00,98.50
2263.00,98.49
2262.00,98.49
2261.00,98.48
2260.00,98.47
2259.00,98.47
2258.00,98.47
2257.00,98.47
2256.00,98.46
2255.00,98.46
2254.00,98.45
2253.00,98.45
2252.00,98.44
2251.00,98.44
2250.00,98.44
2249.00,98.44
2248.00,98.44
2247.00,98.43
2246.00,98.43
2245.00,98.42
2244.00,98.41
2243.00,98.40
2242.00,98.40
2241.00,98.40
2240.00,98.40
2239.00,98.39
2238.00,98.38
2237.00,98.37
2236.00,98.37
2235.00,98.37
2234.00,98.37
2233.00,98.37
2232.00,98.36
2231.00,98.35
2230.00,98.34
2229.00,98.34
2228.00,98.34
2227.00,98.33
2226.00,98.32
2225.00,98.31
2224.00,98.30
2223.00,98.29
2222.00,98.30
2221.00,98.30
2220.00,98.30
2219.00,98.29
2218.00,98.27
2217.00,98.26
2216.00,98.24
2215.00,98.23
2214.00,98.22
2213.00,98.22
2212.00,98.22
2211.00,98.21
2210.00,98.21
2209.00,98.21
2208.00,98.19
2207.00,98.18
2206.00,98.17
2205.00,98.16
2204.00,98.15
2203.00,98.15
2202.00,98.15
2201.00,98.14
2200.00,98.13
2199.00,98.12
2198.00,98.11
2197.00,98.10
2196.00,98.09
2195.00,98.09
2194.00,98.09
2193.00,98.09
2192.00,98.08
2191.00,98.06
2190.00,98.06
2189.00,98.06
2188.00,98.05
2187.00,98.04
2186.00,98.03
2185.00,98.03
2184.00,98.02
2183.00,98.02
2182.00,98.03
2181.00,98.03
2180.00,98.01
2179.00,97.99
2178.00,97.97
2177.00,97.96
2176.00,97.95
2175.00,97.94
2174.00,97.94
2173.00,97.93
2172.00,97.93
2171.00,97.92
2170.00,97.92
2169.00,97.91
2168.00,97.89
2167.00,97.87
2166.00,97.86
2165.00,97.85
2164.00,97.84
2163.00,97.84
2162.00,97.84
2161.00,97.85
2160.00,97.84
2159.00,97.84
2158.00,97.85
2157.00,97.85
2156.00,97.86
2155.00,97.86
2154.00,97.87
2153.00,97.87
2152.00,97.86
2151.00,97.84
2150.00,97.84
2149.00,97.84
2148.00,97.84
2147.00,97.84
2146.00,97.85
2145.00,97.86
2144.00,97.85
2143.00,97.85
2142.00,97.85
2141.00,97.86
2140.00,97.85
2139.00,97.85
2138.00,97.85
2137.00,97.85
2136.00,97.84
2135.00,97.84
2134.00,97.84
2133.00,97.85
2132.00,97.85
2131.00,97.85
2130.00,97.86
2129.00,97.87
2128.00,97.87
2127.00,97.88
2126.00,97.88
2125.00,97.89
2124.00,97.88
2123.00,97.88
2122.00,97.88
2121.00,97.87
2120.00,97.87
2119.00,97.87
2118.00,97.87
2117.00,97.88
2116.00,97.89
2115.00,97.89
2114.00,97.90
2113.00,97.90
2112.00,97.89
2111.00,97.89
2110.00,97.89
2109.00,97.88
2108.00,97.88
2107.00,97.88
2106.00,97.88
2105.00,97.88
2104.00,97.88
2103.00,97.88
2102.00,97.88
2101.00,97.89
2100.00,97.88
2099.00,97.88
2098.00,97.89
2097.00,97.89
2096.00,97.90
2095.00,97.90
2094.00,97.90
2093.00,97.91
2092.00,97.91
2091.00,97.90
2090.00,97.90
2089.00,97.91
2088.00,97.91
2087.00,97.91
2086.00,97.91
2085.00,97.91
2084.00,97.91
2083.00,97.91
2082.00,97.92
2081.00,97.92
2080.00,97.93
2079.00,97.93
2078.00,97.94
2077.00,97.95
2076.00,97.95
2075.00,97.95
2074.00,97.96
2073.00,97.96
2072.00,97.95
2071.00,97.95
2070.00,97.96
2069.00,97.96
2068.00,97.96
2067.00,97.95
2066.00,97.96
2065.00,97.96
2064.00,97.97
2063.00,97.97
2062.00,97.98
2061.00,97.99
2060.00,97.99
2059.00,97.99
2058.00,97.99
2057.00,97.99
2056.00,97.99
2055.00,98.00
2054.00,98.01
2053.00,98.03
2052.00,98.04
2051.00,98.04
2050.00,98.05
2049.00,98.06
2048.00,98.06
2047.00,98.07
2046.00,98.07
2045.00,98.08
2044.00,98.08
2043.00,98.09
2042.00,98.11
2041.00,98.14
2040.00,98.15
2039.00,98.16
2038.00,98.18
2037.00,98.19
2036.00,98.20
2035.00,98.21
2034.00,98.23
2033.00,98.24
2032.00,98.25
2031.00,98.26
2030.00,98.28
2029.00,98.30
2028.00,98.30
2027.00,98.31
2026.00,98.33
2025.00,98.35
2024.00,98.36
2023.00,98.36
2022.00,98.38
2021.00,98.38
2020.00,98.37
2019.00,98.36
2018.00,98.37
2017.00,98.39
2016.00,98.40
2015.00,98.40
2014.00,98.42
2013.00,98.43
2012.00,98.43
2011.00,98.43
2010.00,98.45
2009.00,98.46
2008.00,98.46
2007.00,98.46
2006.00,98.46
2005.00,98.46
2004.00,98.46
2003.00,98.46
2002.00,98.47
2001.00,98.49
2000.00,98.50
1999.00,98.50
1998.00,98.51
1997.00,98.51
1996.00,98.50
1995.00,98.49
1994.00,98.49
1993.00,98.51
1992.00,98.52
1991.00,98.53
1990.00,98.54
1989.00,98.54
1988.00,98.54
1987.00,98.53
1986.00,98.54
1985.00,98.55
1984.00,98.55
1983.00,98.55
1982.00,98.55
1981.00,98.56
1980.00,98.56
1979.00,98.57
1978.00,98.58
1977.00,98.60
1976.00,98.60
1975.00,98.60
1974.00,98.61
1973.00,98.61
1972.00,98.60
1971.00,98.60
1970.00,98.60
1969.00,98.59
1968.00,98.57
1967.00,98.56
1966.00,98.56
1965.00,98.56
1964.00,98.55
1963.00,98.54
1962.00,98.55
1961.00,98.55
1960.00,98.54
1959.00,98.54
1958.00,98.54
1957.00,98.54
1956.00,98.52
1955.00,98.51
1954.00,98.51
1953.00,98.52
1952.00,98.51
1951.00,98.51
1950.00,98.51
1949.00,98.51
1948.00,98.50
1947.00,98.49
1946.00,98.49
1945.00,98.49
1944.00,98.48
1943.00,98.48
1942.00,98.49
1941.00,98.49
1940.00,98.48
1939.00,98.47
1938.00,98.48
1937.00,98.50
1936.00,98.50
1935.00,98.50
1934.00,98.50
1933.00,98.50
1932.00,98.49
1931.00,98.49
1930.00,98.49
1929.00,98.49
1928.00,98.48
1927.00,98.47
1926.00,98.47
1925.00,98.46
1924.00,98.45
1923.00,98.45
1922.00,98.45
1921.00,98.45
1920.00,98.45
1919.00,98.45
1918.00,98.47
1917.00,98.48
1916.00,98.48
1915.00,98.47
1914.00,98.47
1913.00,98.47
1912.00,98.47
1911.00,98.46
1910.00,98.47
1909.00,98.47
1908.00,98.46
1907.00,98.46
1906.00,98.46
1905.00,98.46
1904.00,98.45
1903.00,98.45
1902.00,98.46
1901.00,98.47
1900.00,98.47
1899.00,98.47
1898.00,98.47
1897.00,98.46
1896.00,98.46
1895.00,98.45
1894.00,98.46
1893.00,98.47
1892.00,98.46
1891.00,98.46
1890.00,98.47
1889.00,98.47
1888.00,98.46
1887.00,98.46
1886.00,98.47
1885.00,98.48
1884.00,98.48
1883.00,98.48
1882.00,98.48
1881.00,98.48
1880.00,98.48
1879.00,98.48
1878.00,98.48
1877.00,98.48
1876.00,98.48
1875.00,98.47
1874.00,98.48
1873.00,98.48
1872.00,98.47
1871.00,98.47
1870.00,98.48
1869.00,98.48
1868.00,98.47
1867.00,98.47
1866.00,98.47
1865.00,98.47
1864.00,98.47
1863.00,98.47
1862.00,98.47
1861.00,98.48
1860.00,98.47
1859.00,98.47
1858.00,98.48
1857.00,98.48
1856.00,98.48
1855.00,98.48
1854.00,98.48
1853.00,98.49
1852.00,98.48
1851.00,98.47
1850.00,98.46
1849.00,98.46
1848.00,98.44
1847.00,98.44
1846.00,98.44
1845.00,98.45
1844.00,98.45
1843.00,98.44
1842.00,98.44
1841.00,98.44
1840.00,98.43
1839.00,98.44
1838.00,98.44
1837.00,98.44
1836.00,98.44
1835.00,98.43
1834.00,98.43
1833.00,98.43
1832.00,98.42
1831.00,98.42
1830.00,98.42
1829.00,98.41
1828.00,98.40
1827.00,98.39
1826.00,98.39
1825.00,98.39
1824.00,98.39
1823.00,98.38
1822.00,98.38
1821.00,98.38
1820.00,98.37
1819.00,98.37
1818.00,98.37
1817.00,98.37
1816.00,98.37
1815.00,98.36
1814.00,98.35
1813.00,98.34
1812.00,98.33
1811.00,98.33
1810.00,98.32
1809.00,98.32
1808.00,98.32
1807.00,98.31
1806.00,98.31
1805.00,98.30
1804.00,98.29
1803.00,98.27
1802.00,98.26
1801.00,98.26
1800.00,98.25
1799.00,98.24
1798.00,98.24
1797.00,98.23
1796.00,98.21
1795.00,98.20
1794.00,98.19
1793.00,98.19
1792.00,98.18
1791.00,98.16
1790.00,98.15
1789.00,98.15
1788.00,98.14
1787.00,98.13
1786.00,98.12
1785.00,98.11
1784.00,98.09
1783.00,98.08
1782.00,98.06
1781.00,98.06
1780.00,98.04
1779.00,98.03
1778.00,98.02
1777.00,98.01
1776.00,98.00
1775.00,97.98
1774.00,97.97
1773.00,97.97
1772.00,97.95
1771.00,97.93
1770.00,97.91
1769.00,97.90
1768.00,97.89
1767.00,97.89
1766.00,97.89
1765.00,97.88
1764.00,97.86
1763.00,97.85
1762.00,97.84
1761.00,97.82
1760.00,97.80
1759.00,97.77
1758.00,97.76
1757.00,97.76
1756.00,97.74
1755.00,97.72
1754.00,97.70
1753.00,97.67
1752.00,97.64
1751.00,97.61
1750.00,97.59
1749.00,97.57
1748.00,97.54
1747.00,97.52
1746.00,97.51
1745.00,97.49
1744.00,97.47
1743.00,97.46
1742.00,97.45
1741.00,97.44
1740.00,97.42
1739.00,97.39
1738.00,97.36
1737.00,97.33
1736.00,97.29
1735.00,97.26
1734.00,97.23
1733.00,97.19
1732.00,97.14
1731.00,97.10
1730.00,97.09
1729.00,97.07
1728.00,97.05
1727.00,97.02
1726.00,96.99
1725.00,96.95
1724.00,96.90
1723.00,96.85
1722.00,96.81
1721.00,96.77
1720.00,96.71
1719.00,96.64
1718.00,96.58
1717.00,96.50
1716.00,96.42
1715.00,96.36
1714.00,96.33
1713.00,96.29
1712.00,96.24
1711.00,96.18
1710.00,96.12
1709.00,96.06
1708.00,95.99
1707.00,95.90
1706.00,95.82
1705.00,95.73
1704.00,95.63
1703.00,95.55
1702.00,95.50
1701.00,95.44
1700.00,95.31
1699.00,95.14
1698.00,95.00
1697.00,94.88
1696.00,94.76
1695.00,94.65
1694.00,94.56
1693.00,94.47
1692.00,94.36
1691.00,94.24
1690.00,94.10
1689.00,93.95
1688.00,93.80
1687.00,93.66
1686.00,93.54
1685.00,93.39
1684.00,93.16
1683.00,92.95
1682.00,92.81
1681.00,92.67
1680.00,92.52
1679.00,92.38
1678.00,92.25
1677.00,92.12
1676.00,91.96
1675.00,91.76
1674.00,91.57
1673.00,91.41
1672.00,91.25
1671.00,91.08
1670.00,90.89
1669.00,90.69
1668.00,90.50
1667.00,90.34
1666.00,90.21
1665.00,90.09
1664.00,89.93
1663.00,89.76
1662.00,89.59
1661.00,89.44
1660.00,89.30
1659.00,89.17
1658.00,89.04
1657.00,88.91
1656.00,88.78
1655.00,88.64
1654.00,88.51
1653.00,88.40
1652.00,88.30
1651.00,88.22
1650.00,88.15
1649.00,88.08
1648.00,88.00
1647.00,87.94
1646.00,87.93
1645.00,87.94
1644.00,87.92
1643.00,87.90
1642.00,87.89
1641.00,87.89
1640.00,87.89
1639.00,87.88
1638.00,87.88
1637.00,87.94
1636.00,88.06
1635.00,88.23
1634.00,88.37
1633.00,88.46
1632.00,88.52
1631.00,88.58
1630.00,88.68
1629.00,88.81
1628.00,88.96
1627.00,89.12
1626.00,89.26
1625.00,89.40
1624.00,89.57
1623.00,89.79
1622.00,90.02
1621.00,90.18
1620.00,90.29
1619.00,90.39
1618.00,90.54
1617.00,90.79
1616.00,91.08
1615.00,91.31
1614.00,91.48
1613.00,91.62
1612.00,91.76
1611.00,91.91
1610.00,92.08
1609.00,92.25
1608.00,92.41
1607.00,92.57
1606.00,92.72
1605.00,92.86
1604.00,92.99
1603.00,93.12
1602.00,93.26
1601.00,93.39
1600.00,93.50
1599.00,93.61
1598.00,93.70
1597.00,93.80
1596.00,93.89
1595.00,93.98
1594.00,94.08
1593.00,94.16
1592.00,94.24
1591.00,94.32
1590.00,94.40
1589.00,94.47
1588.00,94.54
1587.00,94.60
1586.00,94.65
1585.00,94.71
1584.00,94.76
1583.00,94.81
1582.00,94.86
1581.00,94.90
1580.00,94.92
1579.00,94.93
1578.00,94.94
1577.00,94.98
1576.00,95.05
1575.00,95.11
1574.00,95.15
1573.00,95.17
1572.00,95.18
1571.00,95.20
1570.00,95.24
1569.00,95.28
1568.00,95.30
1567.00,95.31
1566.00,95.33
1565.00,95.34
1564.00,95.35
1563.00,95.35
1562.00,95.33
1561.00,95.32
1560.00,95.34
1559.00,95.40
1558.00,95.45
1557.00,95.45
1556.00,95.43
1555.00,95.43
1554.00,95.44
1553.00,95.45
1552.00,95.45
1551.00,95.45
1550.00,95.45
1549.00,95.46
1548.00,95.46
1547.00,95.45
1546.00,95.44
1545.00,95.42
1544.00,95.40
1543.00,95.39
1542.00,95.39
1541.00,95.40
1540.00,95.41
1539.00,95.42
1538.00,95.43
1537.00,95.42
1536.00,95.40
1535.00,95.39
1534.00,95.39
1533.00,95.38
1532.00,95.37
1531.00,95.35
1530.00,95.33
1529.00,95.31
1528.00,95.29
1527.00,95.27
1526.00,95.25
1525.00,95.23
1524.00,95.20
1523.00,95.16
1522.00,95.14
1521.00,95.12
1520.00,95.10
1519.00,95.07
1518.00,95.05
1517.00,95.02
1516.00,94.99
1515.00,94.96
1514.00,94.94
1513.00,94.91
1512.00,94.85
1511.00,94.79
1510.00,94.72
1509.00,94.65
1508.00,94.58
1507.00,94.53
1506.00,94.51
1505.00,94.48
1504.00,94.43
1503.00,94.37
1502.00,94.31
1501.00,94.25
1500.00,94.17
1499.00,94.08
1498.00,93.99
1497.00,93.88
1496.00,93.75
1495.00,93.65
1494.00,93.56
1493.00,93.46
1492.00,93.34
1491.00,93.20
1490.00,93.04
1489.00,92.87
1488.00,92.71
1487.00,92.58
1486.00,92.46
1485.00,92.33
1484.00,92.19
1483.00,92.03
1482.00,91.86
1481.00,91.66
1480.00,91.45
1479.00,91.25
1478.00,91.03
1477.00,90.75
1476.00,90.41
1475.00,90.06
1474.00,89.70
1473.00,89.33
1472.00,89.03
1471.00,88.83
1470.00,88.69
1469.00,88.54
1468.00,88.35
1467.00,88.12
1466.00,87.79
1465.00,87.37
1464.00,86.97
1463.00,86.67
1462.00,86.48
1461.00,86.34
1460.00,86.21
1459.00,86.09
1458.00,85.98
1457.00,85.91
1456.00,85.88
1455.00,85.88
1454.00,85.87
1453.00,85.85
1452.00,85.83
1451.00,85.82
1450.00,85.80
1449.00,85.78
1448.00,85.77
1447.00,85.77
1446.00,85.75
1445.00,85.71
1444.00,85.66
1443.00,85.61
1442.00,85.55
1441.00,85.48
1440.00,85.41
1439.00,85.33
1438.00,85.26
1437.00,85.18
1436.00,85.10
1435.00,85.04
1434.00,84.97
1433.00,84.89
1432.00,84.80
1431.00,84.72
1430.00,84.65
1429.00,84.57
1428.00,84.50
1427.00,84.42
1426.00,84.34
1425.00,84.25
1424.00,84.16
1423.00,84.09
1422.00,84.02
1421.00,83.94
1420.00,83.85
1419.00,83.78
1418.00,83.74
1417.00,83.70
1416.00,83.67
1415.00,83.63
1414.00,83.59
1413.00,83.54
1412.00,83.50
1411.00,83.47
1410.00,83.45
1409.00,83.43
1408.00,83.40
1407.00,83.37
1406.00,83.34
1405.00,83.32
1404.00,83.29
1403.00,83.26
1402.00,83.21
1401.00,83.14
1400.00,83.05
1399.00,82.97
1398.00,82.90
1397.00,82.81
1396.00,82.72
1395.00,82.63
1394.00,82.56
1393.00,82.50
1392.00,82.45
1391.00,82.39
1390.00,82.31
1389.00,82.19
1388.00,82.04
1387.00,81.87
1386.00,81.70
1385.00,81.54
1384.00,81.36
1383.00,81.18
1382.00,81.02
1381.00,80.88
1380.00,80.77
1379.00,80.70
1378.00,80.63
1377.00,80.56
1376.00,80.48
1375.00,80.40
1374.00,80.33
1373.00,80.28
1372.00,80.24
1371.00,80.22
1370.00,80.21
1369.00,80.20
1368.00,80.20
1367.00,80.21
1366.00,80.20
1365.00,80.19
1364.00,80.17
1363.00,80.19
1362.00,80.24
1361.00,80.30
1360.00,80.35
1359.00,80.40
1358.00,80.45
1357.00,80.50
1356.00,80.57
1355.00,80.65
1354.00,80.75
1353.00,80.85
1352.00,80.94
1351.00,81.03
1350.00,81.13
1349.00,81.21
1348.00,81.29
1347.00,81.37
1346.00,81.45
1345.00,81.51
1344.00,81.56
1343.00,81.59
1342.00,81.62
1341.00,81.64
1340.00,81.68
1339.00,81.74
1338.00,81.82
1337.00,81.89
1336.00,81.96
1335.00,82.03
1334.00,82.12
1333.00,82.20
1332.00,82.30
1331.00,82.42
1330.00,82.54
1329.00,82.67
1328.00,82.81
1327.00,82.95
1326.00,83.09
1325.00,83.23
1324.00,83.37
1323.00,83.50
1322.00,83.63
1321.00,83.76
1320.00,83.88
1319.00,84.01
1318.00,84.15
1317.00,84.27
1316.00,84.39
1315.00,84.49
1314.00,84.60
1313.00,84.70
1312.00,84.80
1311.00,84.89
1310.00,84.97
1309.00,85.04
1308.00,85.12
1307.00,85.19
1306.00,85.27
1305.00,85.34
1304.00,85.42
1303.00,85.51
1302.00,85.61
1301.00,85.71
1300.00,85.81
1299.00,85.92
1298.00,86.03
1297.00,86.14
1296.00,86.26
1295.00,86.36
1294.00,86.46
1293.00,86.54
1292.00,86.62
1291.00,86.68
1290.00,86.72
1289.00,86.75
1288.00,86.78
1287.00,86.79
1286.00,86.79
1285.00,86.78
1284.00,86.75
1283.00,86.71
1282.00,86.67
1281.00,86.61
1280.00,86.54
1279.00,86.47
1278.00,86.39
1277.00,86.30
1276.00,86.20
1275.00,86.10
1274.00,86.00
1273.00,85.88
1272.00,85.76
1271.00,85.64
1270.00,85.53
1269.00,85.42
1268.00,85.31
1267.00,85.21
1266.00,85.13
1265.00,85.05
1264.00,84.99
1263.00,84.94
1262.00,84.91
1261.00,84.89
1260.00,84.88
1259.00,84.87
1258.00,84.85
1257.00,84.83
1256.00,84.80
1255.00,84.77
1254.00,84.75
1253.00,84.74
1252.00,84.76
1251.00,84.80
1250.00,84.89
1249.00,84.99
1248.00,85.11
1247.00,85.23
1246.00,85.33
1245.00,85.41
1244.00,85.47
1243.00,85.52
1242.00,85.57
1241.00,85.61
1240.00,85.65
1239.00,85.70
1238.00,85.77
1237.00,85.84
1236.00,85.93
1235.00,86.03
1234.00,86.15
1233.00,86.28
1232.00,86.42
1231.00,86.57
1230.00,86.74
1229.00,86.92
1228.00,87.11
1227.00,87.31
1226.00,87.51
1225.00,87.72
1224.00,87.92
1223.00,88.13
1222.00,88.32
1221.00,88.49
1220.00,88.65
1219.00,88.79
1218.00,88.90
1217.00,88.99
1216.00,89.05
1215.00,89.09
1214.00,89.10
1213.00,89.10
1212.00,89.07
1211.00,89.04
1210.00,88.99
1209.00,88.94
1208.00,88.89
1207.00,88.84
1206.00,88.81
1205.00,88.78
1204.00,88.78
1203.00,88.80
1202.00,88.83
1201.00,88.89
1200.00,88.98
1199.00,89.09
1198.00,89.21
1197.00,89.35
1196.00,89.50
1195.00,89.66
1194.00,89.82
1193.00,89.98
1192.00,90.13
1191.00,90.27
1190.00,90.39
1189.00,90.49
1188.00,90.56
1187.00,90.60
1186.00,90.61
1185.00,90.59
1184.00,90.55
1183.00,90.47
1182.00,90.37
1181.00,90.24
1180.00,90.08
1179.00,89.90
1178.00,89.68
1177.00,89.42
1176.00,89.13
1175.00,88.79
1174.00,88.39
1173.00,87.94
1172.00,87.42
1171.00,86.82
1170.00,86.16
1169.00,85.41
1168.00,84.59
1167.00,83.70
1166.00,82.72
1165.00,81.66
1164.00,80.54
1163.00,79.36
1162.00,78.14
1161.00,76.89
1160.00,75.60
1159.00,74.30
1158.00,73.00
1157.00,71.73
1156.00,70.50
1155.00,69.34
1154.00,68.27
1153.00,67.29
1152.00,66.43
1151.00,65.70
1150.00,65.13
1149.00,64.73
1148.00,64.48
1147.00,64.40
1146.00,64.50
1145.00,64.73
1144.00,65.08
1143.00,65.55
1142.00,66.12
1141.00,66.74
1140.00,67.38
1139.00,68.04
1138.00,68.69
1137.00,69.30
1136.00,69.86
1135.00,70.35
1134.00,70.75
1133.00,71.04
1132.00,71.24
1131.00,71.36
1130.00,71.42
1129.00,71.41
1128.00,71.35
1127.00,71.26
1126.00,71.14
1125.00,70.99
1124.00,70.82
1123.00,70.62
1122.00,70.40
1121.00,70.15
1120.00,69.88
1119.00,69.59
1118.00,69.27
1117.00,68.94
1116.00,68.58
1115.00,68.22
1114.00,67.85
1113.00,67.49
1112.00,67.14
1111.00,66.80
1110.00,66.50
1109.00,66.23
1108.00,65.98
1107.00,65.79
1106.00,65.64
1105.00,65.55
1104.00,65.49
1103.00,65.49
1102.00,65.55
1101.00,65.66
1100.00,65.81
1099.00,66.01
1098.00,66.24
1097.00,66.48
1096.00,66.69
1095.00,66.86
1094.00,66.95
1093.00,66.92
1092.00,66.75
1091.00,66.42
1090.00,65.93
1089.00,65.27
1088.00,64.43
1087.00,63.45
1086.00,62.35
1085.00,61.13
1084.00,59.84
1083.00,58.53
1082.00,57.24
1081.00,56.00
1080.00,54.85
1079.00,53.86
1078.00,53.05
1077.00,52.45
1076.00,52.06
1075.00,51.92
1074.00,52.03
1073.00,52.36
1072.00,52.85
1071.00,53.48
1070.00,54.18
1069.00,54.85
1068.00,55.44
1067.00,55.90
1066.00,56.20
1065.00,56.31
1064.00,56.21
1063.00,55.95
1062.00,55.55
1061.00,55.01
1060.00,54.36
1059.00,53.66
1058.00,52.93
1057.00,52.17
1056.00,51.41
1055.00,50.69
1054.00,50.01
1053.00,49.38
1052.00,48.78
1051.00,48.23
1050.00,47.72
1049.00,47.20
1048.00,46.63
1047.00,46.03
1046.00,45.38
1045.00,44.66
1044.00,43.88
1043.00,43.06
1042.00,42.21
1041.00,41.34
1040.00,40.45
1039.00,39.57
1038.00,38.71
1037.00,37.86
1036.00,37.02
1035.00,36.21
1034.00,35.43
1033.00,34.67
1032.00,33.91
1031.00,33.18
1030.00,32.48
1029.00,31.79
1028.00,31.10
1027.00,30.43
1026.00,29.80
1025.00,29.19
1024.00,28.60
1023.00,28.05
1022.00,27.58
1021.00,27.16
1020.00,26.80
1019.00,26.53
1018.00,26.36
1017.00,26.27
1016.00,26.25
1015.00,26.32
1014.00,26.49
1013.00,26.72
1012.00,27.00
1011.00,27.32
1010.00,27.70
1009.00,28.10
1008.00,28.50
1007.00,28.93
1006.00,29.38
1005.00,29.84
1004.00,30.29
1003.00,30.76
1002.00,31.25
1001.00,31.73
1000.00,32.18
999.00,32.63
998.00,33.06
997.00,33.47
996.00,33.86
995.00,34.27
994.00,34.72
993.00,35.23
992.00,35.83
991.00,36.58
990.00,37.53
989.00,38.68
988.00,40.07
987.00,41.71
986.00,43.60
985.00,45.71
984.00,47.99
983.00,50.40
982.00,52.88
981.00,55.36
980.00,57.75
979.00,60.04
978.00,62.19
977.00,64.16
976.00,65.94
975.00,67.53
974.00,68.96
973.00,70.22
972.00,71.33
971.00,72.32
970.00,73.22
969.00,74.03
968.00,74.78
967.00,75.47
966.00,76.13
965.00,76.76
964.00,77.34
963.00,77.87
962.00,78.35
961.00,78.75
960.00,79.06
959.00,79.30
958.00,79.51
957.00,79.71
956.00,79.91
955.00,80.11
954.00,80.29
953.00,80.45
952.00,80.60
951.00,80.73
950.00,80.85
949.00,80.91
948.00,80.92
947.00,80.86
946.00,80.74
945.00,80.55
944.00,80.31
943.00,80.04
942.00,79.74
941.00,79.42
940.00,79.10
939.00,78.78
938.00,78.47
937.00,78.17
936.00,77.89
935.00,77.62
934.00,77.37
933.00,77.13
932.00,76.91
931.00,76.73
930.00,76.57
929.00,76.43
928.00,76.31
927.00,76.22
926.00,76.16
925.00,76.12
924.00,76.11
923.00,76.12
922.00,76.17
921.00,76.24
920.00,76.34
919.00,76.48
918.00,76.64
917.00,76.82
916.00,77.01
915.00,77.21
914.00,77.42
913.00,77.63
912.00,77.83
911.00,78.02
910.00,78.19
909.00,78.33
908.00,78.45
907.00,78.55
906.00,78.64
905.00,78.70
904.00,78.75
903.00,78.80
902.00,78.86
901.00,78.93
900.00,79.02
899.00,79.12
898.00,79.26
897.00,79.42
896.00,79.60
895.00,79.81
894.00,80.05
893.00,80.29
892.00,80.55
891.00,80.81
890.00,81.07
889.00,81.31
888.00,81.54
887.00,81.74
886.00,81.92
885.00,82.06
884.00,82.16
883.00,82.23
882.00,82.25
881.00,82.23
880.00,82.16
879.00,82.05
878.00,81.91
877.00,81.73
876.00,81.51
875.00,81.27
874.00,81.00
873.00,80.70
872.00,80.38
871.00,80.05
870.00,79.71
869.00,79.37
868.00,79.03
867.00,78.69
866.00,78.38
865.00,78.08
864.00,77.79
863.00,77.53
862.00,77.30
861.00,77.09
860.00,76.89
859.00,76.72
858.00,76.57
857.00,76.42
856.00,76.27
855.00,76.13
854.00,75.99
853.00,75.85
852.00,75.70
851.00,75.55
850.00,75.41
849.00,75.27
848.00,75.12
847.00,75.00
846.00,74.90
845.00,74.82
844.00,74.77
843.00,74.74
842.00,74.76
841.00,74.80
840.00,74.87
839.00,74.97
838.00,75.09
837.00,75.22
836.00,75.35
835.00,75.48
834.00,75.61
833.00,75.73
832.00,75.83
831.00,75.92
830.00,76.00
829.00,76.05
828.00,76.08
827.00,76.09
826.00,76.08
825.00,76.05
824.00,76.00
823.00,75.94
822.00,75.86
821.00,75.77
820.00,75.67
819.00,75.56
818.00,75.46
817.00,75.36
816.00,75.26
815.00,75.15
814.00,75.06
813.00,74.96
812.00,74.84
811.00,74.72
810.00,74.60
809.00,74.47
808.00,74.33
807.00,74.17
806.00,74.02
805.00,73.85
804.00,73.67
803.00,73.49
802.00,73.30
801.00,73.09
800.00,72.86
799.00,72.62
798.00,72.37
797.00,72.10
796.00,71.81
795.00,71.50
794.00,71.19
793.00,70.87
792.00,70.53
791.00,70.18
790.00,69.85
789.00,69.51
788.00,69.18
787.00,68.88
786.00,68.61
785.00,68.37
784.00,68.15
783.00,67.97
782.00,67.82
781.00,67.69
780.00,67.56
779.00,67.45
778.00,67.34
777.00,67.22
776.00,67.08
775.00,66.93
774.00,66.78
773.00,66.62
772.00,66.43
771.00,66.23
770.00,66.03
769.00,65.81
768.00,65.58
767.00,65.34
766.00,65.11
765.00,64.86
764.00,64.60
763.00,64.36
762.00,64.14
761.00,63.93
760.00,63.75
759.00,63.59
758.00,63.49
757.00,63.43
756.00,63.40
755.00,63.43
754.00,63.50
753.00,63.60
752.00,63.70
751.00,63.82
750.00,63.96
749.00,64.08
748.00,64.17
747.00,64.25
746.00,64.31
745.00,64.35
744.00,64.35
743.00,64.33
742.00,64.31
741.00,64.27
740.00,64.20
739.00,64.11
738.00,64.03
737.00,63.94
736.00,63.82
735.00,63.70
734.00,63.60
733.00,63.47
732.00,63.33
731.00,63.18
730.00,63.03
729.00,62.86
728.00,62.66
727.00,62.46
726.00,62.26
725.00,62.04
724.00,61.80
723.00,61.54
722.00,61.29
721.00,61.02
720.00,60.72
719.00,60.42
718.00,60.14
717.00,59.86
716.00,59.55
715.00,59.25
714.00,58.96
713.00,58.68
712.00,58.39
711.00,58.11
710.00,57.87
709.00,57.65
708.00,57.43
707.00,57.25
706.00,57.11
705.00,57.00
704.00,56.91
703.00,56.85
702.00,56.84
701.00,56.84
700.00,56.84
699.00,56.86
698.00,56.90
697.00,56.93
696.00,56.94
695.00,56.94
694.00,56.95
693.00,56.95
692.00,56.91
691.00,56.88
690.00,56.85
689.00,56.82
688.00,56.75
687.00,56.69
686.00,56.63
685.00,56.56
684.00,56.46
683.00,56.36
682.00,56.28
681.00,56.20
680.00,56.09
679.00,55.99
678.00,55.91
677.00,55.82
676.00,55.70
675.00,55.60
674.00,55.51
673.00,55.42
672.00,55.31
671.00,55.22
670.00,55.19
669.00,55.16
668.00,55.07
667.00,54.93
666.00,54.79
665.00,54.66
664.00,54.51
663.00,54.38
662.00,54.29
661.00,54.20
660.00,54.07
659.00,53.95
658.00,53.85
657.00,53.73
656.00,53.57
655.00,53.42
654.00,53.31
653.00,53.19
652.00,53.02
651.00,52.87
650.00,52.76
649.00,52.64
648.00,52.46
647.00,52.29
646.00,52.16
645.00,52.00
644.00,51.78
643.00,51.58
642.00,51.44
641.00,51.29
640.00,51.10
639.00,50.94
638.00,50.84
637.00,50.74
636.00,50.57
635.00,50.43
634.00,50.38
633.00,50.32
632.00,50.20
631.00,50.10
630.00,50.09
629.00,50.07
628.00,49.97
627.00,49.89
626.00,49.87
625.00,49.81
624.00,49.65
623.00,49.53
622.00,49.50
621.00,49.43
620.00,49.23
619.00,49.06
618.00,48.99
617.00,48.87
616.00,48.60
615.00,48.35
614.00,48.22
613.00,48.03
612.00,47.69
611.00,47.39
610.00,47.23
609.00,47.04
608.00,46.74
607.00,46.54
606.00,46.53
605.00,46.50
604.00,46.35
603.00,46.23
602.00,46.24
601.00,46.23
600.00,46.14
599.00,46.13
598.00,46.27
597.00,46.34
596.00,46.23
595.00,46.14
594.00,46.21
593.00,46.20
592.00,45.97
591.00,45.76
590.00,45.72
589.00,45.62
588.00,45.32
587.00,45.08
586.00,45.07
585.00,44.99
584.00,44.64
583.00,44.35
582.00,44.35
581.00,44.27
580.00,43.88
579.00,43.55
578.00,43.58
577.00,43.52
576.00,43.11
575.00,42.81
574.00,42.94
573.00,42.97
572.00,42.63
571.00,42.45
570.00,42.72
569.00,42.89
568.00,42.65
567.00,42.55
566.00,42.89
565.00,43.09
564.00,42.83
563.00,42.66
562.00,42.89
561.00,42.99
560.00,42.64
559.00,42.43
558.00,42.69
557.00,42.82
556.00,42.43
555.00,42.16
554.00,42.39
553.00,42.54
552.00,42.22
551.00,42.09
550.00,42.56
549.00,42.94
548.00,42.76
547.00,42.73
546.00,43.29
545.00,43.64
544.00,43.34
543.00,43.21
542.00,43.73
541.00,44.03
540.00,43.54
539.00,43.23
538.00,43.74
537.00,44.01
536.00,43.31
535.00,42.75
534.00,43.20
533.00,43.43
532.00,42.56
531.00,41.96
530.00,42.77
529.00,43.40
528.00,42.55
527.00,42.06
526.00,43.64
525.00,44.61
524.00,42.95
523.00,41.67
522.00,43.34
521.00,44.52
520.00,42.38
519.00,41.08
518.00,45.38
517.00,48.64
516.00,45.82
515.00,43.11
514.00,47.39
513.00,48.77
512.00,41.51
511.00,33.21
510.00,48.48
509.00,49.53
508.00,52.89
507.00,16.19
506.00,70.57
505.00,36.60
504.00,105.05
503.00,1120.58
502.00,111.77
501.00,34.61
500.00,106.01
499.00,167.50
498.00,77.35
497.00,38.39
496.00,143.01
495.00,156.95
494.00,65.51
493.00,73.89
492.00,89.35
491.00,81.49
490.00,89.51
489.00,83.66
488.00,76.97
487.00,70.04
486.00,138.51
485.00,102.92
484.00,110.22
483.00,86.17
482.00,92.51
481.00,108.22
480.00,99.34
479.00,49.44
478.00,94.46
477.00,150.79
476.00,83.70
475.00,94.00
474.00,83.66
473.00,22.42
472.00,95.99
471.00,99.91
470.00,107.17
469.00,126.56
468.00,65.96
467.00,82.02
466.00,71.70
465.00,46.59
464.00,175.57
463.00,141.16
462.00,63.33
461.00,71.21
460.00,94.10
459.00,61.23
458.00,137.61
457.00,135.62
456.00,127.26
455.00,68.91
454.00,89.97
453.00,62.97
452.00,76.10
451.00,89.83
450.00,83.75
449.00,180.88
448.00,89.71
447.00,52.91
446.00,89.78
445.00,105.84
444.00,79.11
443.00,59.53
442.00,96.95
441.00,88.11
440.00,67.39
439.00,79.88
438.00,56.57
437.00,78.44
436.00,115.69
435.00,81.98
434.00,230.75
433.00,95.96
432.00,43.68
431.00,64.61
430.00,55.29
429.00,99.76
428.00,84.12
427.00,52.52
426.00,59.43
425.00,147.76
424.00,94.46
423.00,67.35
422.00,81.82
421.00,47.47
420.00,87.79
419.00,141.72
418.00,77.70
417.00,71.05
416.00,76.18
415.00,55.05
414.00,100.19
413.00,77.26
412.00,111.62
411.00,132.72
410.00,40.55
409.00,61.91
408.00,201.87
407.00,87.17
406.00,98.18
405.00,85.31
404.00,97.44
403.00,81.39
402.00,123.13
401.00,110.80
400.00,90.95
