Created as New Dataset,Sample 006 By FTIR User 2.0 Date Friday, April 12 2024
cm-1,%T
4000.00,100.47
3999.00,100.47
3998.00,100.47
3997.00,100.47
3996.00,100.47
3995.00,100.47
3994.00,100.47
3993.00,100.47
3992.00,100.47
3991.00,100.47
3990.00,100.47
3989.00,100.47
3988.00,100.48
3987.00,100.48
3986.00,100.48
3985.00,100.48
3984.00,100.49
3983.00,100.49
3982.00,100.49
3981.00,100.49
3980.00,100.49
3979.00,100.49
3978.00,100.49
3977.00,100.49
3976.00,100.50
3975.00,100.50
3974.00,100.50
3973.00,100.51
3972.00,100.51
3971.00,100.52
3970.00,100.52
3969.00,100.52
3968.00,100.52
3967.00,100.52
3966.00,100.52
3965.00,100.52
3964.00,100.52
3963.00,100.52
3962.00,100.52
3961.00,100.51
3960.00,100.52
3959.00,100.52
3958.00,100.52
3957.00,100.53
3956.00,100.53
3955.00,100.53
3954.00,100.53
3953.00,100.53
3952.00,100.53
3951.00,100.53
3950.00,100.53
3949.00,100.53
3948.00,100.54
3947.00,100.54
3946.00,100.54
3945.00,100.53
3944.00,100.53
3943.00,100.54
3942.00,100.54
3941.00,100.55
3940.00,100.55
3939.00,100.55
3938.00,100.55
3937.00,100.55
3936.00,100.54
3935.00,100.54
3934.00,100.54
3933.00,100.54
3932.00,100.54
3931.00,100.54
3930.00,100.54
3929.00,100.54
3928.00,100.53
3927.00,100.53
3926.00,100.53
3925.00,100.53
3924.00,100.53
3923.00,100.53
3922.00,100.54
3921.00,100.54
3920.00,100.54
3919.00,100.54
3918.00,100.54
3917.00,100.55
3916.00,100.55
3915.00,100.56
3914.00,100.56
3913.00,100.57
3912.00,100.57
3911.00,100.57
3910.00,100.57
3909.00,100.57
3908.00,100.57
3907.00,100.57
3906.00,100.57
3905.00,100.57
3904.00,100.57
3903.00,100.56
3902.00,100.55
3901.00,100.56
3900.00,100.56
3899.00,100.56
3898.00,100.56
3897.00,100.56
3896.00,100.57
3895.00,100.57
3894.00,100.57
3893.00,100.58
3892.00,100.59
3891.00,100.59
3890.00,100.59
3889.00,100.59
3888.00,100.59
3887.00,100.60
3886.00,100.59
3885.00,100.59
3884.00,100.59
3883.00,100.59
3882.00,100.60
3881.00,100.61
3880.00,100.60
3879.00,100.59
3878.00,100.58
3877.00,100.58
3876.00,100.58
3875.00,100.58
3874.00,100.58
3873.00,100.57
3872.00,100.58
3871.00,100.58
3870.00,100.59
3869.00,100.58
3868.00,100.57
3867.00,100.57
3866.00,100.58
3865.00,100.58
3864.00,100.58
3863.00,100.58
3862.00,100.58
3861.00,100.58
3860.00,100.58
3859.00,100.57
3858.00,100.56
3857.00,100.56
3856.00,100.57
3855.00,100.58
3854.00,100.59
3853.00,100.60
3852.00,100.59
3851.00,100.59
3850.00,100.60
3849.00,100.60
3848.00,100.59
3847.00,100.58
3846.00,100.57
3845.00,100.57
3844.00,100.57
3843.00,100.57
3842.00,100.58
3841.00,100.58
3840.00,100.59
3839.00,100.60
3838.00,100.60
3837.00,100.60
3836.00,100.59
3835.00,100.59
3834.00,100.59
3833.00,100.58
3832.00,100.57
3831.00,100.57
3830.00,100.56
3829.00,100.56
3828.00,100.57
3827.00,100.57
3826.00,100.57
3825.00,100.57
3824.00,100.57
3823.00,100.58
3822.00,100.58
3821.00,100.57
3820.00,100.57
3819.00,100.56
3818.00,100.57
3817.00,100.57
3816.00,100.57
3815.00,100.57
3814.00,100.57
3813.00,100.58
3812.00,100.59
3811.00,100.59
3810.00,100.59
3809.00,100.59
3808.00,100.59
3807.00,100.60
3806.00,100.60
3805.00,100.59
3804.00,100.59
3803.00,100.58
3802.00,100.57
3801.00,100.56
3800.00,100.56
3799.00,100.56
3798.00,100.56
3797.00,100.56
3796.00,100.56
3795.00,100.55
3794.00,100.56
3793.00,100.57
3792.00,100.57
3791.00,100.57
3790.00,100.57
3789.00,100.57
3788.00,100.57
3787.00,100.57
3786.00,100.57
3785.00,100.58
3784.00,100.58
3783.00,100.57
3782.00,100.57
3781.00,100.57
3780.00,100.57
3779.00,100.57
3778.00,100.57
3777.00,100.57
3776.00,100.57
3775.00,100.57
3774.00,100.56
3773.00,100.56
3772.00,100.56
3771.00,100.56
3770.00,100.57
3769.00,100.57
3768.00,100.57
3767.00,100.56
3766.00,100.56
3765.00,100.56
3764.00,100.55
3763.00,100.54
3762.00,100.54
3761.00,100.54
3760.00,100.53
3759.00,100.53
3758.00,100.53
3757.00,100.54
3756.00,100.54
3755.00,100.54
3754.00,100.54
3753.00,100.53
3752.00,100.53
3751.00,100.53
3750.00,100.53
3749.00,100.53
3748.00,100.52
3747.00,100.52
3746.00,100.52
3745.00,100.53
3744.00,100.52
3743.00,100.51
3742.00,100.51
3741.00,100.52
3740.00,100.51
3739.00,100.50
3738.00,100.49
3737.00,100.49
3736.00,100.49
3735.00,100.49
3734.00,100.48
3733.00,100.47
3732.00,100.47
3731.00,100.46
3730.00,100.46
3729.00,100.46
3728.00,100.46
3727.00,100.46
3726.00,100.46
3725.00,100.46
3724.00,100.46
3723.00,100.47
3722.00,100.48
3721.00,100.48
3720.00,100.48
3719.00,100.49
3718.00,100.49
3717.00,100.49
3716.00,100.49
3715.00,100.48
3714.00,100.48
3713.00,100.47
3712.00,100.46
3711.00,100.46
3710.00,100.46
3709.00,100.46
3708.00,100.47
3707.00,100.47
3706.00,100.48
3705.00,100.48
3704.00,100.48
3703.00,100.48
3702.00,100.48
3701.00,100.48
3700.00,100.48
3699.00,100.47
3698.00,100.47
3697.00,100.47
3696.00,100.47
3695.00,100.46
3694.00,100.46
3693.00,100.46
3692.00,100.46
3691.00,100.45
3690.00,100.46
3689.00,100.46
3688.00,100.45
3687.00,100.43
3686.00,100.43
3685.00,100.43
3684.00,100.42
3683.00,100.41
3682.00,100.40
3681.00,100.39
3680.00,100.39
3679.00,100.38
3678.00,100.38
3677.00,100.38
3676.00,100.37
3675.00,100.36
3674.00,100.35
3673.00,100.34
3672.00,100.34
3671.00,100.33
3670.00,100.31
3669.00,100.30
3668.00,100.29
3667.00,100.30
3666.00,100.30
3665.00,100.30
3664.00,100.29
3663.00,100.28
3662.00,100.27
3661.00,100.27
3660.00,100.27
3659.00,100.27
3658.00,100.26
3657.00,100.26
3656.00,100.24
3655.00,100.23
3654.00,100.22
3653.00,100.21
3652.00,100.20
3651.00,100.18
3650.00,100.15
3649.00,100.14
3648.00,100.12
3647.00,100.11
3646.00,100.10
3645.00,100.10
3644.00,100.09
3643.00,100.08
3642.00,100.07
3641.00,100.06
3640.00,100.05
3639.00,100.03
3638.00,100.02
3637.00,100.01
3636.00,99.99
3635.00,99.98
3634.00,99.96
3633.00,99.94
3632.00,99.93
3631.00,99.92
3630.00,99.90
3629.00,99.87
3628.00,99.84
3627.00,99.81
3626.00,99.80
3625.00,99.79
3624.00,99.78
3623.00,99.76
3622.00,99.74
3621.00,99.72
3620.00,99.69
3619.00,99.65
3618.00,99.60
3617.00,99.56
3616.00,99.53
3615.00,99.50
3614.00,99.46
3613.00,99.43
3612.00,99.39
3611.00,99.36
3610.00,99.32
3609.00,99.28
3608.00,99.24
3607.00,99.20
3606.00,99.17
3605.00,99.14
3604.00,99.11
3603.00,99.07
3602.00,99.02
3601.00,98.97
3600.00,98.92
3599.00,98.87
3598.00,98.82
3597.00,98.77
3596.00,98.70
3595.00,98.64
3594.00,98.58
3593.00,98.53
3592.00,98.49
3591.00,98.45
3590.00,98.40
3589.00,98.34
3588.00,98.26
3587.00,98.18
3586.00,98.11
3585.00,98.04
3584.00,97.98
3583.00,97.92
3582.00,97.86
3581.00,97.79
3580.00,97.72
3579.00,97.66
3578.00,97.59
3577.00,97.52
3576.00,97.44
3575.00,97.37
3574.00,97.30
3573.00,97.22
3572.00,97.15
3571.00,97.08
3570.00,97.00
3569.00,96.92
3568.00,96.82
3567.00,96.72
3566.00,96.61
3565.00,96.52
3564.00,96.44
3563.00,96.36
3562.00,96.27
3561.00,96.19
3560.00,96.10
3559.00,96.01
3558.00,95.92
3557.00,95.84
3556.00,95.75
3555.00,95.65
3554.00,95.55
3553.00,95.44
3552.00,95.33
3551.00,95.23
3550.00,95.13
3549.00,95.04
3548.00,94.93
3547.00,94.82
3546.00,94.70
3545.00,94.58
3544.00,94.48
3543.00,94.38
3542.00,94.27
3541.00,94.17
3540.00,94.06
3539.00,93.94
3538.00,93.82
3537.00,93.70
3536.00,93.58
3535.00,93.47
3534.00,93.36
3533.00,93.25
3532.00,93.13
3531.00,93.00
3530.00,92.87
3529.00,92.74
3528.00,92.61
3527.00,92.47
3526.00,92.34
3525.00,92.20
3524.00,92.07
3523.00,91.93
3522.00,91.81
3521.00,91.68
3520.00,91.56
3519.00,91.42
3518.00,91.27
3517.00,91.13
3516.00,90.99
3515.00,90.85
3514.00,90.71
3513.00,90.58
3512.00,90.44
3511.00,90.30
3510.00,90.15
3509.00,90.00
3508.00,89.85
3507.00,89.71
3506.00,89.56
3505.00,89.41
3504.00,89.24
3503.00,89.08
3502.00,88.92
3501.00,88.78
3500.00,88.63
3499.00,88.48
3498.00,88.32
3497.00,88.16
3496.00,88.00
3495.00,87.85
3494.00,87.71
3493.00,87.56
3492.00,87.42
3491.00,87.26
3490.00,87.10
3489.00,86.93
3488.00,86.75
3487.00,86.59
3486.00,86.44
3485.00,86.29
3484.00,86.14
3483.00,85.97
3482.00,85.79
3481.00,85.61
3480.00,85.44
3479.00,85.29
3478.00,85.15
3477.00,85.00
3476.00,84.84
3475.00,84.68
3474.00,84.51
3473.00,84.33
3472.00,84.15
3471.00,83.96
3470.00,83.78
3469.00,83.60
3468.00,83.43
3467.00,83.27
3466.00,83.13
3465.00,82.98
3464.00,82.83
3463.00,82.66
3462.00,82.49
3461.00,82.31
3460.00,82.15
3459.00,81.99
3458.00,81.84
3457.00,81.69
3456.00,81.52
3455.00,81.36
3454.00,81.19
3453.00,81.03
3452.00,80.86
3451.00,80.69
3450.00,80.52
3449.00,80.34
3448.00,80.16
3447.00,79.98
3446.00,79.82
3445.00,79.67
3444.00,79.52
3443.00,79.36
3442.00,79.18
3441.00,79.00
3440.00,78.81
3439.00,78.61
3438.00,78.41
3437.00,78.22
3436.00,78.05
3435.00,77.89
3434.00,77.74
3433.00,77.59
3432.00,77.43
3431.00,77.26
3430.00,77.10
3429.00,76.94
3428.00,76.80
3427.00,76.67
3426.00,76.53
3425.00,76.38
3424.00,76.22
3423.00,76.05
3422.00,75.87
3421.00,75.70
3420.00,75.55
3419.00,75.41
3418.00,75.27
3417.00,75.11
3416.00,74.93
3415.00,74.74
3414.00,74.56
3413.00,74.39
3412.00,74.23
3411.00,74.08
3410.00,73.93
3409.00,73.79
3408.00,73.65
3407.00,73.51
3406.00,73.36
3405.00,73.19
3404.00,73.01
3403.00,72.83
3402.00,72.65
3401.00,72.49
3400.00,72.35
3399.00,72.22
3398.00,72.10
3397.00,71.97
3396.00,71.82
3395.00,71.67
3394.00,71.50
3393.00,71.34
3392.00,71.20
3391.00,71.08
3390.00,70.99
3389.00,70.90
3388.00,70.80
3387.00,70.68
3386.00,70.55
3385.00,70.42
3384.00,70.28
3383.00,70.13
3382.00,69.98
3381.00,69.84
3380.00,69.70
3379.00,69.57
3378.00,69.44
3377.00,69.31
3376.00,69.19
3375.00,69.07
3374.00,68.94
3373.00,68.80
3372.00,68.63
3371.00,68.47
3370.00,68.32
3369.00,68.18
3368.00,68.07
3367.00,67.98
3366.00,67.91
3365.00,67.84
3364.00,67.75
3363.00,67.65
3362.00,67.53
3361.00,67.41
3360.00,67.31
3359.00,67.23
3358.00,67.16
3357.00,67.07
3356.00,66.98
3355.00,66.87
3354.00,66.74
3353.00,66.60
3352.00,66.47
3351.00,66.35
3350.00,66.27
3349.00,66.21
3348.00,66.16
3347.00,66.09
3346.00,66.00
3345.00,65.89
3344.00,65.78
3343.00,65.68
3342.00,65.58
3341.00,65.49
3340.00,65.39
3339.00,65.30
3338.00,65.23
3337.00,65.19
3336.00,65.17
3335.00,65.15
3334.00,65.12
3333.00,65.07
3332.00,65.01
3331.00,64.94
3330.00,64.86
3329.00,64.77
3328.00,64.67
3327.00,64.58
3326.00,64.50
3325.00,64.45
3324.00,64.43
3323.00,64.41
3322.00,64.39
3321.00,64.37
3320.00,64.33
3319.00,64.30
3318.00,64.25
3317.00,64.21
3316.00,64.16
3315.00,64.11
3314.00,64.06
3313.00,64.00
3312.00,63.93
3311.00,63.85
3310.00,63.77
3309.00,63.70
3308.00,63.65
3307.00,63.62
3306.00,63.61
3305.00,63.62
3304.00,63.65
3303.00,63.69
3302.00,63.72
3301.00,63.74
3300.00,63.73
3299.00,63.69
3298.00,63.65
3297.00,63.60
3296.00,63.57
3295.00,63.55
3294.00,63.55
3293.00,63.56
3292.00,63.58
3291.00,63.63
3290.00,63.69
3289.00,63.75
3288.00,63.80
3287.00,63.82
3286.00,63.84
3285.00,63.85
3284.00,63.87
3283.00,63.89
3282.00,63.91
3281.00,63.94
3280.00,63.96
3279.00,63.98
3278.00,63.99
3277.00,63.99
3276.00,63.98
3275.00,63.98
3274.00,63.99
3273.00,64.01
3272.00,64.03
3271.00,64.08
3270.00,64.16
3269.00,64.26
3268.00,64.37
3267.00,64.47
3266.00,64.54
3265.00,64.61
3264.00,64.68
3263.00,64.74
3262.00,64.80
3261.00,64.87
3260.00,64.92
3259.00,64.97
3258.00,65.00
3257.00,65.04
3256.00,65.10
3255.00,65.18
3254.00,65.29
3253.00,65.40
3252.00,65.49
3251.00,65.56
3250.00,65.61
3249.00,65.64
3248.00,65.69
3247.00,65.76
3246.00,65.86
3245.00,66.00
3244.00,66.14
3243.00,66.28
3242.00,66.39
3241.00,66.50
3240.00,66.60
3239.00,66.69
3238.00,66.77
3237.00,66.84
3236.00,66.90
3235.00,66.96
3234.00,67.05
3233.00,67.18
3232.00,67.33
3231.00,67.50
3230.00,67.67
3229.00,67.82
3228.00,67.95
3227.00,68.08
3226.00,68.21
3225.00,68.34
3224.00,68.46
3223.00,68.59
3222.00,68.71
3221.00,68.82
3220.00,68.95
3219.00,69.08
3218.00,69.23
3217.00,69.38
3216.00,69.52
3215.00,69.67
3214.00,69.82
3213.00,69.98
3212.00,70.14
3211.00,70.30
3210.00,70.45
3209.00,70.59
3208.00,70.73
3207.00,70.87
3206.00,71.03
3205.00,71.19
3204.00,71.35
3203.00,71.51
3202.00,71.67
3201.00,71.84
3200.00,72.01
3199.00,72.18
3198.00,72.35
3197.00,72.52
3196.00,72.69
3195.00,72.85
3194.00,73.02
3193.00,73.18
3192.00,73.34
3191.00,73.51
3190.00,73.67
3189.00,73.85
3188.00,74.03
3187.00,74.21
3186.00,74.38
3185.00,74.56
3184.00,74.73
3183.00,74.90
3182.00,75.08
3181.00,75.25
3180.00,75.43
3179.00,75.61
3178.00,75.79
3177.00,75.98
3176.00,76.16
3175.00,76.34
3174.00,76.52
3173.00,76.70
3172.00,76.88
3171.00,77.06
3170.00,77.24
3169.00,77.41
3168.00,77.59
3167.00,77.77
3166.00,77.95
3165.00,78.13
3164.00,78.31
3163.00,78.49
3162.00,78.67
3161.00,78.85
3160.00,79.03
3159.00,79.20
3158.00,79.36
3157.00,79.52
3156.00,79.67
3155.00,79.82
3154.00,79.97
3153.00,80.13
3152.00,80.32
3151.00,80.53
3150.00,80.73
3149.00,80.93
3148.00,81.12
3147.00,81.30
3146.00,81.47
3145.00,81.64
3144.00,81.81
3143.00,81.97
3142.00,82.12
3141.00,82.26
3140.00,82.41
3139.00,82.58
3138.00,82.76
3137.00,82.95
3136.00,83.13
3135.00,83.30
3134.00,83.47
3133.00,83.63
3132.00,83.79
3131.00,83.94
3130.00,84.09
3129.00,84.26
3128.00,84.43
3127.00,84.59
3126.00,84.74
3125.00,84.89
3124.00,85.02
3123.00,85.15
3122.00,85.28
3121.00,85.41
3120.00,85.55
3119.00,85.70
3118.00,85.85
3117.00,86.00
3116.00,86.15
3115.00,86.31
3114.00,86.46
3113.00,86.61
3112.00,86.76
3111.00,86.89
3110.00,87.02
3109.00,87.15
3108.00,87.29
3107.00,87.44
3106.00,87.58
3105.00,87.72
3104.00,87.84
3103.00,87.97
3102.00,88.08
3101.00,88.21
3100.00,88.33
3099.00,88.46
3098.00,88.59
3097.00,88.72
3096.00,88.84
3095.00,88.96
3094.00,89.08
3093.00,89.18
3092.00,89.29
3091.00,89.39
3090.00,89.49
3089.00,89.60
3088.00,89.71
3087.00,89.82
3086.00,89.93
3085.00,90.03
3084.00,90.14
3083.00,90.24
3082.00,90.34
3081.00,90.44
3080.00,90.54
3079.00,90.64
3078.00,90.74
3077.00,90.85
3076.00,90.95
3075.00,91.05
3074.00,91.14
3073.00,91.23
3072.00,91.33
3071.00,91.41
3070.00,91.50
3069.00,91.58
3068.00,91.66
3067.00,91.74
3066.00,91.82
3065.00,91.91
3064.00,92.00
3063.00,92.08
3062.00,92.17
3061.00,92.25
3060.00,92.32
3059.00,92.39
3058.00,92.46
3057.00,92.53
3056.00,92.60
3055.00,92.67
3054.00,92.75
3053.00,92.82
3052.00,92.89
3051.00,92.95
3050.00,93.02
3049.00,93.08
3048.00,93.15
3047.00,93.21
3046.00,93.27
3045.00,93.33
3044.00,93.39
3043.00,93.45
3042.00,93.51
3041.00,93.57
3040.00,93.63
3039.00,93.69
3038.00,93.74
3037.00,93.79
3036.00,93.84
3035.00,93.89
3034.00,93.94
3033.00,93.99
3032.00,94.05
3031.00,94.09
3030.00,94.14
3029.00,94.19
3028.00,94.23
3027.00,94.28
3026.00,94.32
3025.00,94.36
3024.00,94.39
3023.00,94.43
3022.00,94.46
3021.00,94.49
3020.00,94.53
3019.00,94.56
3018.00,94.59
3017.00,94.62
3016.00,94.65
3015.00,94.68
3014.00,94.70
3013.00,94.72
3012.00,94.74
3011.00,94.75
3010.00,94.76
3009.00,94.77
3008.00,94.77
3007.00,94.77
3006.00,94.77
3005.00,94.77
3004.00,94.76
3003.00,94.75
3002.00,94.74
3001.00,94.72
3000.00,94.70
2999.00,94.68
2998.00,94.65
2997.00,94.62
2996.00,94.58
2995.00,94.54
2994.00,94.50
2993.00,94.45
2992.00,94.39
2991.00,94.33
2990.00,94.25
2989.00,94.17
2988.00,94.08
2987.00,93.97
2986.00,93.85
2985.00,93.71
2984.00,93.55
2983.00,93.37
2982.00,93.19
2981.00,93.02
2980.00,92.85
2979.00,92.68
2978.00,92.50
2977.00,92.32
2976.00,92.12
2975.00,91.90
2974.00,91.66
2973.00,91.40
2972.00,91.14
2971.00,90.88
2970.00,90.62
2969.00,90.36
2968.00,90.09
2967.00,89.81
2966.00,89.53
2965.00,89.25
2964.00,88.97
2963.00,88.69
2962.00,88.41
2961.00,88.13
2960.00,87.86
2959.00,87.59
2958.00,87.32
2957.00,87.06
2956.00,86.80
2955.00,86.55
2954.00,86.31
2953.00,86.07
2952.00,85.84
2951.00,85.62
2950.00,85.40
2949.00,85.20
2948.00,85.00
2947.00,84.81
2946.00,84.64
2945.00,84.47
2944.00,84.31
2943.00,84.17
2942.00,84.04
2941.00,83.92
2940.00,83.81
2939.00,83.71
2938.00,83.64
2937.00,83.57
2936.00,83.53
2935.00,83.50
2934.00,83.49
2933.00,83.50
2932.00,83.53
2931.00,83.57
2930.00,83.63
2929.00,83.70
2928.00,83.80
2927.00,83.90
2926.00,84.02
2925.00,84.15
2924.00,84.29
2923.00,84.43
2922.00,84.58
2921.00,84.73
2920.00,84.89
2919.00,85.04
2918.00,85.19
2917.00,85.34
2916.00,85.47
2915.00,85.60
2914.00,85.72
2913.00,85.83
2912.00,85.93
2911.00,86.02
2910.00,86.09
2909.00,86.15
2908.00,86.19
2907.00,86.22
2906.00,86.24
2905.00,86.24
2904.00,86.23
2903.00,86.19
2902.00,86.14
2901.00,86.08
2900.00,86.00
2899.00,85.90
2898.00,85.79
2897.00,85.67
2896.00,85.53
2895.00,85.38
2894.00,85.21
2893.00,85.05
2892.00,84.88
2891.00,84.71
2890.00,84.54
2889.00,84.37
2888.00,84.22
2887.00,84.07
2886.00,83.93
2885.00,83.81
2884.00,83.71
2883.00,83.63
2882.00,83.57
2881.00,83.53
2880.00,83.52
2879.00,83.53
2878.00,83.57
2877.00,83.63
2876.00,83.73
2875.00,83.85
2874.00,83.98
2873.00,84.14
2872.00,84.31
2871.00,84.51
2870.00,84.71
2869.00,84.93
2868.00,85.16
2867.00,85.40
2866.00,85.64
2865.00,85.88
2864.00,86.12
2863.00,86.36
2862.00,86.60
2861.00,86.84
2860.00,87.07
2859.00,87.30
2858.00,87.51
2857.00,87.72
2856.00,87.91
2855.00,88.10
2854.00,88.29
2853.00,88.47
2852.00,88.64
2851.00,88.81
2850.00,88.97
2849.00,89.13
2848.00,89.27
2847.00,89.40
2846.00,89.53
2845.00,89.65
2844.00,89.78
2843.00,89.91
2842.00,90.04
2841.00,90.17
2840.00,90.29
2839.00,90.41
2838.00,90.53
2837.00,90.64
2836.00,90.75
2835.00,90.86
2834.00,90.96
2833.00,91.06
2832.00,91.17
2831.00,91.27
2830.00,91.37
2829.00,91.47
2828.00,91.57
2827.00,91.67
2826.00,91.77
2825.00,91.87
2824.00,91.97
2823.00,92.07
2822.00,92.16
2821.00,92.25
2820.00,92.34
2819.00,92.43
2818.00,92.52
2817.00,92.61
2816.00,92.69
2815.00,92.78
2814.00,92.86
2813.00,92.95
2812.00,93.04
2811.00,93.12
2810.00,93.20
2809.00,93.27
2808.00,93.34
2807.00,93.41
2806.00,93.47
2805.00,93.54
2804.00,93.61
2803.00,93.68
2802.00,93.75
2801.00,93.81
2800.00,93.88
2799.00,93.95
2798.00,94.01
2797.00,94.07
2796.00,94.12
2795.00,94.17
2794.00,94.22
2793.00,94.28
2792.00,94.34
2791.00,94.39
2790.00,94.44
2789.00,94.49
2788.00,94.53
2787.00,94.57
2786.00,94.60
2785.00,94.64
2784.00,94.69
2783.00,94.73
2782.00,94.77
2781.00,94.81
2780.00,94.85
2779.00,94.89
2778.00,94.94
2777.00,94.98
2776.00,95.02
2775.00,95.06
2774.00,95.09
2773.00,95.11
2772.00,95.14
2771.00,95.16
2770.00,95.19
2769.00,95.22
2768.00,95.25
2767.00,95.28
2766.00,95.31
2765.00,95.33
2764.00,95.36
2763.00,95.38
2762.00,95.40
2761.00,95.43
2760.00,95.45
2759.00,95.47
2758.00,95.50
2757.00,95.52
2756.00,95.54
2755.00,95.56
2754.00,95.58
2753.00,95.60
2752.00,95.62
2751.00,95.65
2750.00,95.67
2749.00,95.69
2748.00,95.71
2747.00,95.73
2746.00,95.74
2745.00,95.75
2744.00,95.77
2743.00,95.78
2742.00,95.80
2741.00,95.82
2740.00,95.84
2739.00,95.86
2738.00,95.88
2737.00,95.90
2736.00,95.92
2735.00,95.93
2734.00,95.95
2733.00,95.97
2732.00,95.99
2731.00,96.01
2730.00,96.03
2729.00,96.05
2728.00,96.08
2727.00,96.11
2726.00,96.13
2725.00,96.15
2724.00,96.17
2723.00,96.19
2722.00,96.21
2721.00,96.22
2720.00,96.24
2719.00,96.26
2718.00,96.28
2717.00,96.30
2716.00,96.32
2715.00,96.35
2714.00,96.37
2713.00,96.39
2712.00,96.41
2711.00,96.43
2710.00,96.45
2709.00,96.46
2708.00,96.48
2707.00,96.50
2706.00,96.52
2705.00,96.53
2704.00,96.54
2703.00,96.56
2702.00,96.57
2701.00,96.59
2700.00,96.60
2699.00,96.62
2698.00,96.63
2697.00,96.64
2696.00,96.65
2695.00,96.66
2694.00,96.67
2693.00,96.68
2692.00,96.69
2691.00,96.70
2690.00,96.71
2689.00,96.72
2688.00,96.73
2687.00,96.73
2686.00,96.74
2685.00,96.75
2684.00,96.75
2683.00,96.77
2682.00,96.78
2681.00,96.79
2680.00,96.80
2679.00,96.81
2678.00,96.81
2677.00,96.82
2676.00,96.82
2675.00,96.83
2674.00,96.83
2673.00,96.84
2672.00,96.84
2671.00,96.85
2670.00,96.85
2669.00,96.86
2668.00,96.86
2667.00,96.87
2666.00,96.87
2665.00,96.88
2664.00,96.88
2663.00,96.89
2662.00,96.90
2661.00,96.91
2660.00,96.91
2659.00,96.92
2658.00,96.93
2657.00,96.94
2656.00,96.95
2655.00,96.95
2654.00,96.96
2653.00,96.97
2652.00,96.98
2651.00,96.99
2650.00,97.00
2649.00,97.01
2648.00,97.01
2647.00,97.02
2646.00,97.04
2645.00,97.05
2644.00,97.06
2643.00,97.08
2642.00,97.09
2641.00,97.10
2640.00,97.12
2639.00,97.14
2638.00,97.15
2637.00,97.17
2636.00,97.18
2635.00,97.19
2634.00,97.21
2633.00,97.22
2632.00,97.24
2631.00,97.25
2630.00,97.27
2629.00,97.29
2628.00,97.30
2627.00,97.32
2626.00,97.34
2625.00,97.35
2624.00,97.37
2623.00,97.39
2622.00,97.40
2621.00,97.42
2620.00,97.44
2619.00,97.46
2618.00,97.48
2617.00,97.50
2616.00,97.53
2615.00,97.55
2614.00,97.56
2613.00,97.58
2612.00,97.60
2611.00,97.62
2610.00,97.63
2609.00,97.65
2608.00,97.67
2607.00,97.68
2606.00,97.70
2605.00,97.72
2604.00,97.74
2603.00,97.75
2602.00,97.77
2601.00,97.79
2600.00,97.81
2599.00,97.83
2598.00,97.84
2597.00,97.86
2596.00,97.88
2595.00,97.89
2594.00,97.91
2593.00,97.92
2592.00,97.93
2591.00,97.95
2590.00,97.96
2589.00,97.98
2588.00,97.99
2587.00,98.00
2586.00,98.01
2585.00,98.03
2584.00,98.04
2583.00,98.06
2582.00,98.07
2581.00,98.08
2580.00,98.09
2579.00,98.10
2578.00,98.11
2577.00,98.12
2576.00,98.12
2575.00,98.13
2574.00,98.14
2573.00,98.14
2572.00,98.15
2571.00,98.16
2570.00,98.17
2569.00,98.18
2568.00,98.19
2567.00,98.20
2566.00,98.20
2565.00,98.21
2564.00,98.21
2563.00,98.22
2562.00,98.23
2561.00,98.24
2560.00,98.24
2559.00,98.25
2558.00,98.25
2557.00,98.26
2556.00,98.26
2555.00,98.27
2554.00,98.27
2553.00,98.28
2552.00,98.28
2551.00,98.29
2550.00,98.29
2549.00,98.30
2548.00,98.30
2547.00,98.31
2546.00,98.32
2545.00,98.32
2544.00,98.32
2543.00,98.32
2542.00,98.32
2541.00,98.32
2540.00,98.33
2539.00,98.33
2538.00,98.34
2537.00,98.34
2536.00,98.34
2535.00,98.34
2534.00,98.35
2533.00,98.35
2532.00,98.35
2531.00,98.36
2530.00,98.36
2529.00,98.36
2528.00,98.36
2527.00,98.36
2526.00,98.37
2525.00,98.38
2524.00,98.38
2523.00,98.39
2522.00,98.40
2521.00,98.40
2520.00,98.41
2519.00,98.41
2518.00,98.41
2517.00,98.41
2516.00,98.42
2515.00,98.42
2514.00,98.43
2513.00,98.43
2512.00,98.44
2511.00,98.44
2510.00,98.45
2509.00,98.45
2508.00,98.46
2507.00,98.47
2506.00,98.48
2505.00,98.48
2504.00,98.49
2503.00,98.49
2502.00,98.50
2501.00,98.50
2500.00,98.51
2499.00,98.51
2498.00,98.52
2497.00,98.53
2496.00,98.53
2495.00,98.54
2494.00,98.55
2493.00,98.56
2492.00,98.57
2491.00,98.58
2490.00,98.59
2489.00,98.59
2488.00,98.59
2487.00,98.60
2486.00,98.61
2485.00,98.62
2484.00,98.62
2483.00,98.63
2482.00,98.64
2481.00,98.65
2480.00,98.66
2479.00,98.67
2478.00,98.68
2477.00,98.69
2476.00,98.70
2475.00,98.70
2474.00,98.71
2473.00,98.72
2472.00,98.73
2471.00,98.74
2470.00,98.75
2469.00,98.76
2468.00,98.77
2467.00,98.78
2466.00,98.79
2465.00,98.79
2464.00,98.80
2463.00,98.81
2462.00,98.82
2461.00,98.83
2460.00,98.84
2459.00,98.84
2458.00,98.85
2457.00,98.86
2456.00,98.87
2455.00,98.88
2454.00,98.89
2453.00,98.90
2452.00,98.91
2451.00,98.92
2450.00,98.93
2449.00,98.94
2448.00,98.95
2447.00,98.97
2446.00,98.98
2445.00,98.99
2444.00,99.00
2443.00,99.01
2442.00,99.02
2441.00,99.03
2440.00,99.04
2439.00,99.06
2438.00,99.07
2437.00,99.08
2436.00,99.09
2435.00,99.10
2434.00,99.12
2433.00,99.13
2432.00,99.14
2431.00,99.15
2430.00,99.16
2429.00,99.17
2428.00,99.18
2427.00,99.19
2426.00,99.20
2425.00,99.21
2424.00,99.21
2423.00,99.22
2422.00,99.23
2421.00,99.24
2420.00,99.25
2419.00,99.26
2418.00,99.27
2417.00,99.28
2416.00,99.28
2415.00,99.29
2414.00,99.30
2413.00,99.30
2412.00,99.31
2411.00,99.32
2410.00,99.32
2409.00,99.33
2408.00,99.34
2407.00,99.35
2406.00,99.36
2405.00,99.37
2404.00,99.37
2403.00,99.38
2402.00,99.39
2401.00,99.40
2400.00,99.40
2399.00,99.41
2398.00,99.41
2397.00,99.42
2396.00,99.42
2395.00,99.43
2394.00,99.43
2393.00,99.44
2392.00,99.44
2391.00,99.45
2390.00,99.45
2389.00,99.46
2388.00,99.46
2387.00,99.45
2386.00,99.45
2385.00,99.45
2384.00,99.45
2383.00,99.45
2382.00,99.46
2381.00,99.48
2380.00,99.52
2379.00,99.55
2378.00,99.59
2377.00,99.61
2376.00,99.61
2375.00,99.60
2374.00,99.58
2373.00,99.55
2372.00,99.52
2371.00,99.51
2370.00,99.52
2369.00,99.53
2368.00,99.54
2367.00,99.55
2366.00,99.55
2365.00,99.54
2364.00,99.54
2363.00,99.55
2362.00,99.56
2361.00,99.57
2360.00,99.57
2359.00,99.57
2358.00,99.57
2357.00,99.57
2356.00,99.58
2355.00,99.59
2354.00,99.60
2353.00,99.62
2352.00,99.63
2351.00,99.64
2350.00,99.62
2349.00,99.59
2348.00,99.56
2347.00,99.55
2346.00,99.56
2345.00,99.57
2344.00,99.56
2343.00,99.55
2342.00,99.54
2341.00,99.56
2340.00,99.58
2339.00,99.60
2338.00,99.61
2337.00,99.62
2336.00,99.62
2335.00,99.62
2334.00,99.63
2333.00,99.64
2332.00,99.64
2331.00,99.65
2330.00,99.64
2329.00,99.62
2328.00,99.59
2327.00,99.56
2326.00,99.55
2325.00,99.54
2324.00,99.55
2323.00,99.56
2322.00,99.57
2321.00,99.58
2320.00,99.58
2319.00,99.58
2318.00,99.58
2317.00,99.58
2316.00,99.58
2315.00,99.59
2314.00,99.59
2313.00,99.60
2312.00,99.61
2311.00,99.61
2310.00,99.61
2309.00,99.60
2308.00,99.60
2307.00,99.60
2306.00,99.60
2305.00,99.61
2304.00,99.60
2303.00,99.60
2302.00,99.59
2301.00,99.59
2300.00,99.59
2299.00,99.59
2298.00,99.60
2297.00,99.60
2296.00,99.61
2295.00,99.61
2294.00,99.62
2293.00,99.62
2292.00,99.62
2291.00,99.63
2290.00,99.64
2289.00,99.65
2288.00,99.65
2287.00,99.65
2286.00,99.65
2285.00,99.65
2284.00,99.65
2283.00,99.66
2282.00,99.67
2281.00,99.67
2280.00,99.68
2279.00,99.68
2278.00,99.68
2277.00,99.68
2276.00,99.68
2275.00,99.69
2274.00,99.69
2273.00,99.69
2272.00,99.69
2271.00,99.70
2270.00,99.71
2269.00,99.71
2268.00,99.72
2267.00,99.72
2266.00,99.72
2265.00,99.72
2264.00,99.72
2263.00,99.72
2262.00,99.73
2261.00,99.73
2260.00,99.73
2259.00,99.73
2258.00,99.73
2257.00,99.74
2256.00,99.74
2255.00,99.74
2254.00,99.74
2253.00,99.74
2252.00,99.74
2251.00,99.74
2250.00,99.75
2249.00,99.75
2248.00,99.76
2247.00,99.76
2246.00,99.76
2245.00,99.76
2244.00,99.76
2243.00,99.75
2242.00,99.76
2241.00,99.76
2240.00,99.77
2239.00,99.77
2238.00,99.77
2237.00,99.78
2236.00,99.78
2235.00,99.78
2234.00,99.79
2233.00,99.78
2232.00,99.77
2231.00,99.76
2230.00,99.76
2229.00,99.76
2228.00,99.76
2227.00,99.76
2226.00,99.77
2225.00,99.76
2224.00,99.76
2223.00,99.75
2222.00,99.76
2221.00,99.76
2220.00,99.76
2219.00,99.76
2218.00,99.76
2217.00,99.76
2216.00,99.75
2215.00,99.75
2214.00,99.75
2213.00,99.76
2212.00,99.76
2211.00,99.77
2210.00,99.78
2209.00,99.79
2208.00,99.78
2207.00,99.78
2206.00,99.77
2205.00,99.77
2204.00,99.75
2203.00,99.75
2202.00,99.76
2201.00,99.77
2200.00,99.78
2199.00,99.78
2198.00,99.78
2197.00,99.78
2196.00,99.78
2195.00,99.79
2194.00,99.79
2193.00,99.80
2192.00,99.79
2191.00,99.79
2190.00,99.79
2189.00,99.79
2188.00,99.77
2187.00,99.76
2186.00,99.77
2185.00,99.77
2184.00,99.78
2183.00,99.79
2182.00,99.80
2181.00,99.79
2180.00,99.77
2179.00,99.76
2178.00,99.75
2177.00,99.74
2176.00,99.74
2175.00,99.74
2174.00,99.74
2173.00,99.74
2172.00,99.73
2171.00,99.73
2170.00,99.73
2169.00,99.73
2168.00,99.71
2167.00,99.69
2166.00,99.68
2165.00,99.67
2164.00,99.66
2163.00,99.66
2162.00,99.66
2161.00,99.67
2160.00,99.68
2159.00,99.68
2158.00,99.69
2157.00,99.69
2156.00,99.70
2155.00,99.70
2154.00,99.71
2153.00,99.70
2152.00,99.69
2151.00,99.67
2150.00,99.67
2149.00,99.67
2148.00,99.67
2147.00,99.66
2146.00,99.66
2145.00,99.66
2144.00,99.66
2143.00,99.67
2142.00,99.67
2141.00,99.67
2140.00,99.67
2139.00,99.67
2138.00,99.67
2137.00,99.67
2136.00,99.66
2135.00,99.65
2134.00,99.65
2133.00,99.65
2132.00,99.65
2131.00,99.66
2130.00,99.66
2129.00,99.67
2128.00,99.66
2127.00,99.66
2126.00,99.66
2125.00,99.66
2124.00,99.65
2123.00,99.64
2122.00,99.64
2121.00,99.64
2120.00,99.63
2119.00,99.63
2118.00,99.63
2117.00,99.64
2116.00,99.64
2115.00,99.64
2114.00,99.64
2113.00,99.64
2112.00,99.63
2111.00,99.62
2110.00,99.62
2109.00,99.62
2108.00,99.62
2107.00,99.62
2106.00,99.62
2105.00,99.62
2104.00,99.62
2103.00,99.62
2102.00,99.62
2101.00,99.62
2100.00,99.62
2099.00,99.61
2098.00,99.61
2097.00,99.61
2096.00,99.60
2095.00,99.60
2094.00,99.61
2093.00,99.61
2092.00,99.61
2091.00,99.60
2090.00,99.60
2089.00,99.60
2088.00,99.60
2087.00,99.59
2086.00,99.59
2085.00,99.58
2084.00,99.58
2083.00,99.57
2082.00,99.58
2081.00,99.59
2080.00,99.59
2079.00,99.59
2078.00,99.59
2077.00,99.59
2076.00,99.59
2075.00,99.60
2074.00,99.60
2073.00,99.59
2072.00,99.58
2071.00,99.58
2070.00,99.58
2069.00,99.58
2068.00,99.58
2067.00,99.59
2066.00,99.59
2065.00,99.60
2064.00,99.60
2063.00,99.60
2062.00,99.60
2061.00,99.61
2060.00,99.61
2059.00,99.61
2058.00,99.61
2057.00,99.62
2056.00,99.62
2055.00,99.62
2054.00,99.62
2053.00,99.63
2052.00,99.63
2051.00,99.64
2050.00,99.65
2049.00,99.66
2048.00,99.66
2047.00,99.66
2046.00,99.67
2045.00,99.67
2044.00,99.67
2043.00,99.66
2042.00,99.67
2041.00,99.68
2040.00,99.69
2039.00,99.70
2038.00,99.71
2037.00,99.71
2036.00,99.70
2035.00,99.69
2034.00,99.71
2033.00,99.72
2032.00,99.72
2031.00,99.72
2030.00,99.72
2029.00,99.73
2028.00,99.72
2027.00,99.72
2026.00,99.74
2025.00,99.74
2024.00,99.74
2023.00,99.74
2022.00,99.76
2021.00,99.76
2020.00,99.76
2019.00,99.75
2018.00,99.74
2017.00,99.74
2016.00,99.74
2015.00,99.74
2014.00,99.75
2013.00,99.75
2012.00,99.75
2011.00,99.75
2010.00,99.75
2009.00,99.76
2008.00,99.76
2007.00,99.76
2006.00,99.77
2005.00,99.77
2004.00,99.77
2003.00,99.77
2002.00,99.77
2001.00,99.78
2000.00,99.77
1999.00,99.77
1998.00,99.77
1997.00,99.77
1996.00,99.76
1995.00,99.75
1994.00,99.76
1993.00,99.76
1992.00,99.75
1991.00,99.74
1990.00,99.74
1989.00,99.74
1988.00,99.73
1987.00,99.73
1986.00,99.73
1985.00,99.72
1984.00,99.71
1983.00,99.70
1982.00,99.71
1981.00,99.71
1980.00,99.70
1979.00,99.70
1978.00,99.70
1977.00,99.71
1976.00,99.70
1975.00,99.70
1974.00,99.71
1973.00,99.71
1972.00,99.70
1971.00,99.70
1970.00,99.70
1969.00,99.69
1968.00,99.68
1967.00,99.68
1966.00,99.68
1965.00,99.67
1964.00,99.65
1963.00,99.65
1962.00,99.66
1961.00,99.67
1960.00,99.66
1959.00,99.66
1958.00,99.66
1957.00,99.66
1956.00,99.65
1955.00,99.65
1954.00,99.66
1953.00,99.67
1952.00,99.67
1951.00,99.67
1950.00,99.67
1949.00,99.67
1948.00,99.66
1947.00,99.67
1946.00,99.68
1945.00,99.68
1944.00,99.68
1943.00,99.67
1942.00,99.67
1941.00,99.67
1940.00,99.66
1939.00,99.65
1938.00,99.66
1937.00,99.67
1936.00,99.68
1935.00,99.68
1934.00,99.68
1933.00,99.68
1932.00,99.67
1931.00,99.67
1930.00,99.67
1929.00,99.66
1928.00,99.66
1927.00,99.65
1926.00,99.66
1925.00,99.67
1924.00,99.67
1923.00,99.67
1922.00,99.67
1921.00,99.67
1920.00,99.66
1919.00,99.65
1918.00,99.65
1917.00,99.65
1916.00,99.65
1915.00,99.65
1914.00,99.65
1913.00,99.66
1912.00,99.65
1911.00,99.65
1910.00,99.66
1909.00,99.66
1908.00,99.65
1907.00,99.65
1906.00,99.64
1905.00,99.64
1904.00,99.63
1903.00,99.63
1902.00,99.64
1901.00,99.64
1900.00,99.64
1899.00,99.64
1898.00,99.65
1897.00,99.65
1896.00,99.64
1895.00,99.64
1894.00,99.65
1893.00,99.65
1892.00,99.65
1891.00,99.65
1890.00,99.65
1889.00,99.65
1888.00,99.65
1887.00,99.65
1886.00,99.66
1885.00,99.67
1884.00,99.67
1883.00,99.67
1882.00,99.67
1881.00,99.67
1880.00,99.66
1879.00,99.66
1878.00,99.66
1877.00,99.66
1876.00,99.66
1875.00,99.66
1874.00,99.66
1873.00,99.67
1872.00,99.66
1871.00,99.66
1870.00,99.66
1869.00,99.66
1868.00,99.66
1867.00,99.66
1866.00,99.66
1865.00,99.66
1864.00,99.65
1863.00,99.65
1862.00,99.65
1861.00,99.65
1860.00,99.65
1859.00,99.64
1858.00,99.65
1857.00,99.64
1856.00,99.64
1855.00,99.63
1854.00,99.64
1853.00,99.64
1852.00,99.63
1851.00,99.63
1850.00,99.62
1849.00,99.62
1848.00,99.62
1847.00,99.62
1846.00,99.62
1845.00,99.61
1844.00,99.60
1843.00,99.59
1842.00,99.59
1841.00,99.59
1840.00,99.59
1839.00,99.59
1838.00,99.59
1837.00,99.59
1836.00,99.59
1835.00,99.58
1834.00,99.59
1833.00,99.59
1832.00,99.59
1831.00,99.58
1830.00,99.58
1829.00,99.57
1828.00,99.56
1827.00,99.56
1826.00,99.56
1825.00,99.56
1824.00,99.56
1823.00,99.55
1822.00,99.55
1821.00,99.55
1820.00,99.55
1819.00,99.55
1818.00,99.56
1817.00,99.56
1816.00,99.56
1815.00,99.55
1814.00,99.55
1813.00,99.55
1812.00,99.55
1811.00,99.54
1810.00,99.54
1809.00,99.54
1808.00,99.53
1807.00,99.53
1806.00,99.53
1805.00,99.53
1804.00,99.53
1803.00,99.52
1802.00,99.52
1801.00,99.52
1800.00,99.51
1799.00,99.51
1798.00,99.50
1797.00,99.50
1796.00,99.49
1795.00,99.49
1794.00,99.48
1793.00,99.48
1792.00,99.47
1791.00,99.46
1790.00,99.46
1789.00,99.46
1788.00,99.46
1787.00,99.45
1786.00,99.45
1785.00,99.45
1784.00,99.44
1783.00,99.43
1782.00,99.43
1781.00,99.43
1780.00,99.43
1779.00,99.42
1778.00,99.42
1777.00,99.41
1776.00,99.40
1775.00,99.40
1774.00,99.40
1773.00,99.40
1772.00,99.39
1771.00,99.38
1770.00,99.38
1769.00,99.37
1768.00,99.36
1767.00,99.36
1766.00,99.36
1765.00,99.36
1764.00,99.36
1763.00,99.35
1762.00,99.35
1761.00,99.34
1760.00,99.34
1759.00,99.33
1758.00,99.33
1757.00,99.33
1756.00,99.32
1755.00,99.32
1754.00,99.31
1753.00,99.31
1752.00,99.30
1751.00,99.29
1750.00,99.29
1749.00,99.28
1748.00,99.27
1747.00,99.26
1746.00,99.26
1745.00,99.25
1744.00,99.24
1743.00,99.23
1742.00,99.23
1741.00,99.23
1740.00,99.22
1739.00,99.21
1738.00,99.20
1737.00,99.20
1736.00,99.18
1735.00,99.17
1734.00,99.16
1733.00,99.16
1732.00,99.14
1731.00,99.14
1730.00,99.13
1729.00,99.13
1728.00,99.12
1727.00,99.11
1726.00,99.11
1725.00,99.10
1724.00,99.09
1723.00,99.08
1722.00,99.08
1721.00,99.07
1720.00,99.06
1719.00,99.05
1718.00,99.05
1717.00,99.05
1716.00,99.03
1715.00,99.02
1714.00,99.02
1713.00,99.02
1712.00,99.01
1711.00,99.01
1710.00,99.00
1709.00,98.99
1708.00,98.98
1707.00,98.97
1706.00,98.97
1705.00,98.96
1704.00,98.94
1703.00,98.93
1702.00,98.93
1701.00,98.92
1700.00,98.90
1699.00,98.89
1698.00,98.88
1697.00,98.88
1696.00,98.86
1695.00,98.85
1694.00,98.84
1693.00,98.83
1692.00,98.81
1691.00,98.80
1690.00,98.78
1689.00,98.77
1688.00,98.75
1687.00,98.74
1686.00,98.73
1685.00,98.71
1684.00,98.69
1683.00,98.66
1682.00,98.64
1681.00,98.63
1680.00,98.61
1679.00,98.59
1678.00,98.58
1677.00,98.56
1676.00,98.53
1675.00,98.51
1674.00,98.50
1673.00,98.48
1672.00,98.46
1671.00,98.44
1670.00,98.43
1669.00,98.42
1668.00,98.40
1667.00,98.39
1666.00,98.38
1665.00,98.37
1664.00,98.36
1663.00,98.34
1662.00,98.33
1661.00,98.32
1660.00,98.31
1659.00,98.30
1658.00,98.29
1657.00,98.28
1656.00,98.26
1655.00,98.25
1654.00,98.25
1653.00,98.26
1652.00,98.25
1651.00,98.25
1650.00,98.24
1649.00,98.24
1648.00,98.22
1647.00,98.22
1646.00,98.24
1645.00,98.24
1644.00,98.24
1643.00,98.24
1642.00,98.24
1641.00,98.24
1640.00,98.24
1639.00,98.23
1638.00,98.23
1637.00,98.24
1636.00,98.25
1635.00,98.27
1634.00,98.28
1633.00,98.28
1632.00,98.27
1631.00,98.27
1630.00,98.27
1629.00,98.28
1628.00,98.28
1627.00,98.28
1626.00,98.29
1625.00,98.29
1624.00,98.28
1623.00,98.29
1622.00,98.30
1621.00,98.30
1620.00,98.29
1619.00,98.28
1618.00,98.28
1617.00,98.29
1616.00,98.30
1615.00,98.30
1614.00,98.30
1613.00,98.30
1612.00,98.29
1611.00,98.28
1610.00,98.28
1609.00,98.28
1608.00,98.27
1607.00,98.27
1606.00,98.27
1605.00,98.27
1604.00,98.26
1603.00,98.26
1602.00,98.26
1601.00,98.25
1600.00,98.24
1599.00,98.23
1598.00,98.23
1597.00,98.22
1596.00,98.21
1595.00,98.20
1594.00,98.20
1593.00,98.19
1592.00,98.18
1591.00,98.17
1590.00,98.17
1589.00,98.16
1588.00,98.15
1587.00,98.14
1586.00,98.14
1585.00,98.13
1584.00,98.11
1583.00,98.10
1582.00,98.10
1581.00,98.09
1580.00,98.07
1579.00,98.06
1578.00,98.06
1577.00,98.05
1576.00,98.03
1575.00,98.02
1574.00,98.02
1573.00,98.00
1572.00,97.98
1571.00,97.96
1570.00,97.94
1569.00,97.93
1568.00,97.91
1567.00,97.90
1566.00,97.89
1565.00,97.87
1564.00,97.85
1563.00,97.83
1562.00,97.82
1561.00,97.81
1560.00,97.78
1559.00,97.76
1558.00,97.75
1557.00,97.72
1556.00,97.69
1555.00,97.67
1554.00,97.66
1553.00,97.64
1552.00,97.62
1551.00,97.59
1550.00,97.58
1549.00,97.56
1548.00,97.53
1547.00,97.50
1546.00,97.48
1545.00,97.45
1544.00,97.41
1543.00,97.39
1542.00,97.38
1541.00,97.37
1540.00,97.33
1539.00,97.29
1538.00,97.27
1537.00,97.24
1536.00,97.21
1535.00,97.17
1534.00,97.14
1533.00,97.10
1532.00,97.06
1531.00,97.03
1530.00,97.01
1529.00,96.97
1528.00,96.93
1527.00,96.88
1526.00,96.85
1525.00,96.80
1524.00,96.76
1523.00,96.71
1522.00,96.68
1521.00,96.63
1520.00,96.56
1519.00,96.52
1518.00,96.48
1517.00,96.42
1516.00,96.35
1515.00,96.29
1514.00,96.24
1513.00,96.19
1512.00,96.11
1511.00,96.04
1510.00,95.99
1509.00,95.93
1508.00,95.84
1507.00,95.72
1506.00,95.62
1505.00,95.52
1504.00,95.43
1503.00,95.35
1502.00,95.27
1501.00,95.17
1500.00,95.05
1499.00,94.93
1498.00,94.80
1497.00,94.64
1496.00,94.44
1495.00,94.26
1494.00,94.13
1493.00,93.98
1492.00,93.80
1491.00,93.58
1490.00,93.31
1489.00,92.99
1488.00,92.67
1487.00,92.38
1486.00,92.11
1485.00,91.82
1484.00,91.52
1483.00,91.20
1482.00,90.86
1481.00,90.48
1480.00,90.11
1479.00,89.77
1478.00,89.45
1477.00,89.09
1476.00,88.71
1475.00,88.35
1474.00,87.97
1473.00,87.52
1472.00,87.03
1471.00,86.66
1470.00,86.38
1469.00,86.12
1468.00,85.86
1467.00,85.60
1466.00,85.31
1465.00,85.00
1464.00,84.71
1463.00,84.50
1462.00,84.33
1461.00,84.15
1460.00,83.98
1459.00,83.82
1458.00,83.67
1457.00,83.53
1456.00,83.46
1455.00,83.45
1454.00,83.43
1453.00,83.41
1452.00,83.40
1451.00,83.42
1450.00,83.43
1449.00,83.44
1448.00,83.44
1447.00,83.45
1446.00,83.44
1445.00,83.38
1444.00,83.30
1443.00,83.22
1442.00,83.12
1441.00,83.01
1440.00,82.90
1439.00,82.78
1438.00,82.66
1437.00,82.52
1436.00,82.39
1435.00,82.30
1434.00,82.21
1433.00,82.10
1432.00,81.98
1431.00,81.87
1430.00,81.78
1429.00,81.68
1428.00,81.60
1427.00,81.52
1426.00,81.44
1425.00,81.35
1424.00,81.27
1423.00,81.22
1422.00,81.17
1421.00,81.10
1420.00,81.03
1419.00,81.00
1418.00,81.01
1417.00,81.01
1416.00,81.00
1415.00,80.99
1414.00,80.98
1413.00,80.97
1412.00,80.97
1411.00,81.00
1410.00,81.04
1409.00,81.08
1408.00,81.11
1407.00,81.16
1406.00,81.23
1405.00,81.33
1404.00,81.45
1403.00,81.56
1402.00,81.65
1401.00,81.73
1400.00,81.83
1399.00,81.99
1398.00,82.15
1397.00,82.29
1396.00,82.43
1395.00,82.61
1394.00,82.80
1393.00,82.96
1392.00,83.08
1391.00,83.19
1390.00,83.29
1389.00,83.39
1388.00,83.51
1387.00,83.67
1386.00,83.81
1385.00,83.91
1384.00,83.99
1383.00,84.06
1382.00,84.12
1381.00,84.18
1380.00,84.24
1379.00,84.29
1378.00,84.33
1377.00,84.35
1376.00,84.37
1375.00,84.39
1374.00,84.42
1373.00,84.44
1372.00,84.45
1371.00,84.45
1370.00,84.45
1369.00,84.45
1368.00,84.46
1367.00,84.48
1366.00,84.49
1365.00,84.49
1364.00,84.50
1363.00,84.52
1362.00,84.56
1361.00,84.58
1360.00,84.59
1359.00,84.58
1358.00,84.56
1357.00,84.54
1356.00,84.51
1355.00,84.49
1354.00,84.46
1353.00,84.43
1352.00,84.39
1351.00,84.35
1350.00,84.31
1349.00,84.27
1348.00,84.23
1347.00,84.19
1346.00,84.14
1345.00,84.10
1344.00,84.05
1343.00,84.00
1342.00,83.94
1341.00,83.88
1340.00,83.82
1339.00,83.78
1338.00,83.74
1337.00,83.70
1336.00,83.65
1335.00,83.61
1334.00,83.57
1333.00,83.53
1332.00,83.50
1331.00,83.47
1330.00,83.46
1329.00,83.44
1328.00,83.43
1327.00,83.44
1326.00,83.45
1325.00,83.46
1324.00,83.48
1323.00,83.51
1322.00,83.54
1321.00,83.58
1320.00,83.63
1319.00,83.71
1318.00,83.79
1317.00,83.89
1316.00,83.98
1315.00,84.09
1314.00,84.20
1313.00,84.33
1312.00,84.46
1311.00,84.58
1310.00,84.70
1309.00,84.81
1308.00,84.92
1307.00,85.02
1306.00,85.12
1305.00,85.20
1304.00,85.27
1303.00,85.34
1302.00,85.40
1301.00,85.46
1300.00,85.51
1299.00,85.55
1298.00,85.60
1297.00,85.63
1296.00,85.67
1295.00,85.71
1294.00,85.74
1293.00,85.77
1292.00,85.81
1291.00,85.84
1290.00,85.87
1289.00,85.91
1288.00,85.94
1287.00,85.99
1286.00,86.04
1285.00,86.08
1284.00,86.13
1283.00,86.18
1282.00,86.23
1281.00,86.28
1280.00,86.33
1279.00,86.39
1278.00,86.45
1277.00,86.51
1276.00,86.57
1275.00,86.63
1274.00,86.69
1273.00,86.74
1272.00,86.80
1271.00,86.85
1270.00,86.91
1269.00,86.95
1268.00,87.00
1267.00,87.04
1266.00,87.08
1265.00,87.12
1264.00,87.15
1263.00,87.18
1262.00,87.19
1261.00,87.21
1260.00,87.21
1259.00,87.21
1258.00,87.19
1257.00,87.16
1256.00,87.12
1255.00,87.07
1254.00,87.01
1253.00,86.94
1252.00,86.87
1251.00,86.78
1250.00,86.69
1249.00,86.60
1248.00,86.50
1247.00,86.41
1246.00,86.31
1245.00,86.21
1244.00,86.11
1243.00,86.03
1242.00,85.94
1241.00,85.86
1240.00,85.79
1239.00,85.72
1238.00,85.67
1237.00,85.61
1236.00,85.57
1235.00,85.54
1234.00,85.51
1233.00,85.49
1232.00,85.47
1231.00,85.45
1230.00,85.44
1229.00,85.43
1228.00,85.41
1227.00,85.40
1226.00,85.39
1225.00,85.37
1224.00,85.35
1223.00,85.33
1222.00,85.31
1221.00,85.28
1220.00,85.25
1219.00,85.22
1218.00,85.19
1217.00,85.16
1216.00,85.12
1215.00,85.09
1214.00,85.07
1213.00,85.04
1212.00,85.03
1211.00,85.02
1210.00,85.02
1209.00,85.03
1208.00,85.04
1207.00,85.08
1206.00,85.13
1205.00,85.18
1204.00,85.26
1203.00,85.35
1202.00,85.45
1201.00,85.58
1200.00,85.72
1199.00,85.88
1198.00,86.07
1197.00,86.27
1196.00,86.49
1195.00,86.73
1194.00,86.98
1193.00,87.25
1192.00,87.54
1191.00,87.84
1190.00,88.14
1189.00,88.45
1188.00,88.77
1187.00,89.08
1186.00,89.40
1185.00,89.70
1184.00,90.00
1183.00,90.30
1182.00,90.58
1181.00,90.85
1180.00,91.11
1179.00,91.36
1178.00,91.59
1177.00,91.81
1176.00,92.01
1175.00,92.20
1174.00,92.38
1173.00,92.54
1172.00,92.69
1171.00,92.82
1170.00,92.95
1169.00,93.06
1168.00,93.17
1167.00,93.27
1166.00,93.35
1165.00,93.43
1164.00,93.50
1163.00,93.57
1162.00,93.63
1161.00,93.69
1160.00,93.73
1159.00,93.77
1158.00,93.81
1157.00,93.83
1156.00,93.85
1155.00,93.87
1154.00,93.88
1153.00,93.88
1152.00,93.88
1151.00,93.87
1150.00,93.85
1149.00,93.82
1148.00,93.77
1147.00,93.72
1146.00,93.65
1145.00,93.56
1144.00,93.45
1143.00,93.32
1142.00,93.15
1141.00,92.96
1140.00,92.73
1139.00,92.45
1138.00,92.13
1137.00,91.75
1136.00,91.31
1135.00,90.80
1134.00,90.21
1133.00,89.55
1132.00,88.80
1131.00,87.96
1130.00,87.04
1129.00,86.03
1128.00,84.95
1127.00,83.80
1126.00,82.59
1125.00,81.33
1124.00,80.03
1123.00,78.70
1122.00,77.36
1121.00,76.02
1120.00,74.70
1119.00,73.42
1118.00,72.20
1117.00,71.04
1116.00,69.96
1115.00,68.99
1114.00,68.14
1113.00,67.42
1112.00,66.84
1111.00,66.40
1110.00,66.13
1109.00,66.00
1108.00,66.00
1107.00,66.13
1106.00,66.39
1105.00,66.73
1104.00,67.13
1103.00,67.58
1102.00,68.07
1101.00,68.57
1100.00,69.07
1099.00,69.57
1098.00,70.05
1097.00,70.51
1096.00,70.94
1095.00,71.35
1094.00,71.74
1093.00,72.10
1092.00,72.42
1091.00,72.71
1090.00,72.98
1089.00,73.22
1088.00,73.42
1087.00,73.59
1086.00,73.72
1085.00,73.81
1084.00,73.86
1083.00,73.87
1082.00,73.84
1081.00,73.75
1080.00,73.61
1079.00,73.43
1078.00,73.19
1077.00,72.90
1076.00,72.56
1075.00,72.16
1074.00,71.72
1073.00,71.23
1072.00,70.68
1071.00,70.09
1070.00,69.45
1069.00,68.75
1068.00,67.99
1067.00,67.19
1066.00,66.34
1065.00,65.44
1064.00,64.49
1063.00,63.50
1062.00,62.48
1061.00,61.43
1060.00,60.35
1059.00,59.25
1058.00,58.13
1057.00,57.00
1056.00,55.83
1055.00,54.65
1054.00,53.46
1053.00,52.24
1052.00,50.98
1051.00,49.73
1050.00,48.48
1049.00,47.24
1048.00,46.00
1047.00,44.80
1046.00,43.64
1045.00,42.52
1044.00,41.43
1043.00,40.39
1042.00,39.41
1041.00,38.50
1040.00,37.63
1039.00,36.84
1038.00,36.15
1037.00,35.54
1036.00,35.00
1035.00,34.57
1034.00,34.25
1033.00,34.03
1032.00,33.91
1031.00,33.93
1030.00,34.08
1029.00,34.37
1028.00,34.80
1027.00,35.39
1026.00,36.16
1025.00,37.12
1024.00,38.25
1023.00,39.59
1022.00,41.15
1021.00,42.90
1020.00,44.82
1019.00,46.90
1018.00,49.12
1017.00,51.42
1016.00,53.73
1015.00,56.02
1014.00,58.21
1013.00,60.24
1012.00,62.04
1011.00,63.59
1010.00,64.84
1009.00,65.78
1008.00,66.40
1007.00,66.72
1006.00,66.78
1005.00,66.59
1004.00,66.20
1003.00,65.66
1002.00,65.02
1001.00,64.33
1000.00,63.61
999.00,62.93
998.00,62.33
997.00,61.81
996.00,61.40
995.00,61.14
994.00,61.04
993.00,61.10
992.00,61.30
991.00,61.67
990.00,62.17
989.00,62.77
988.00,63.46
987.00,64.19
986.00,64.94
985.00,65.66
984.00,66.33
983.00,66.93
982.00,67.46
981.00,67.91
980.00,68.28
979.00,68.60
978.00,68.90
977.00,69.20
976.00,69.54
975.00,69.94
974.00,70.44
973.00,71.05
972.00,71.79
971.00,72.67
970.00,73.67
969.00,74.79
968.00,76.00
967.00,77.27
966.00,78.57
965.00,79.87
964.00,81.12
963.00,82.30
962.00,83.40
961.00,84.38
960.00,85.25
959.00,86.01
958.00,86.66
957.00,87.21
956.00,87.67
955.00,88.07
954.00,88.40
953.00,88.66
952.00,88.88
951.00,89.05
950.00,89.17
949.00,89.25
948.00,89.27
947.00,89.23
946.00,89.13
945.00,88.95
944.00,88.69
943.00,88.34
942.00,87.89
941.00,87.32
940.00,86.63
939.00,85.83
938.00,84.92
937.00,83.90
936.00,82.79
935.00,81.62
934.00,80.42
933.00,79.20
932.00,78.00
931.00,76.85
930.00,75.79
929.00,74.83
928.00,74.00
927.00,73.32
926.00,72.79
925.00,72.42
924.00,72.19
923.00,72.10
922.00,72.15
921.00,72.30
920.00,72.54
919.00,72.84
918.00,73.21
917.00,73.60
916.00,74.03
915.00,74.50
914.00,75.00
913.00,75.54
912.00,76.12
911.00,76.75
910.00,77.43
909.00,78.16
908.00,78.92
907.00,79.73
906.00,80.56
905.00,81.41
904.00,82.25
903.00,83.09
902.00,83.92
901.00,84.71
900.00,85.46
899.00,86.17
898.00,86.83
897.00,87.43
896.00,87.96
895.00,88.43
894.00,88.83
893.00,89.16
892.00,89.43
891.00,89.63
890.00,89.77
889.00,89.84
888.00,89.85
887.00,89.81
886.00,89.71
885.00,89.54
884.00,89.30
883.00,88.99
882.00,88.61
881.00,88.15
880.00,87.59
879.00,86.96
878.00,86.25
877.00,85.48
876.00,84.65
875.00,83.78
874.00,82.91
873.00,82.03
872.00,81.18
871.00,80.36
870.00,79.62
869.00,78.95
868.00,78.37
867.00,77.88
866.00,77.48
865.00,77.16
864.00,76.89
863.00,76.68
862.00,76.50
861.00,76.34
860.00,76.17
859.00,75.99
858.00,75.81
857.00,75.60
856.00,75.38
855.00,75.18
854.00,75.00
853.00,74.85
852.00,74.75
851.00,74.71
850.00,74.77
849.00,74.91
848.00,75.14
847.00,75.47
846.00,75.90
845.00,76.41
844.00,77.00
843.00,77.65
842.00,78.37
841.00,79.12
840.00,79.88
839.00,80.65
838.00,81.39
837.00,82.08
836.00,82.70
835.00,83.24
834.00,83.69
833.00,84.04
832.00,84.29
831.00,84.45
830.00,84.54
829.00,84.56
828.00,84.52
827.00,84.43
826.00,84.30
825.00,84.15
824.00,83.99
823.00,83.84
822.00,83.71
821.00,83.60
820.00,83.52
819.00,83.49
818.00,83.50
817.00,83.55
816.00,83.63
815.00,83.74
814.00,83.87
813.00,84.00
812.00,84.14
811.00,84.27
810.00,84.38
809.00,84.48
808.00,84.54
807.00,84.57
806.00,84.58
805.00,84.56
804.00,84.52
803.00,84.47
802.00,84.40
801.00,84.32
800.00,84.22
799.00,84.11
798.00,84.00
797.00,83.88
796.00,83.75
795.00,83.61
794.00,83.47
793.00,83.32
792.00,83.17
791.00,83.01
790.00,82.86
789.00,82.70
788.00,82.53
787.00,82.37
786.00,82.22
785.00,82.07
784.00,81.93
783.00,81.80
782.00,81.68
781.00,81.56
780.00,81.43
779.00,81.31
778.00,81.20
777.00,81.08
776.00,80.95
775.00,80.83
774.00,80.72
773.00,80.59
772.00,80.46
771.00,80.33
770.00,80.20
769.00,80.06
768.00,79.91
767.00,79.77
766.00,79.63
765.00,79.48
764.00,79.33
763.00,79.17
762.00,79.03
761.00,78.88
760.00,78.73
759.00,78.57
758.00,78.42
757.00,78.26
756.00,78.09
755.00,77.93
754.00,77.78
753.00,77.62
752.00,77.46
751.00,77.30
750.00,77.15
749.00,76.99
748.00,76.82
747.00,76.65
746.00,76.49
745.00,76.33
744.00,76.16
743.00,75.99
742.00,75.83
741.00,75.66
740.00,75.49
739.00,75.32
738.00,75.16
737.00,75.00
736.00,74.82
735.00,74.65
734.00,74.49
733.00,74.32
732.00,74.14
731.00,73.97
730.00,73.80
729.00,73.62
728.00,73.43
727.00,73.25
726.00,73.09
725.00,72.93
724.00,72.76
723.00,72.58
722.00,72.42
721.00,72.24
720.00,72.05
719.00,71.87
718.00,71.70
717.00,71.52
716.00,71.34
715.00,71.16
714.00,70.99
713.00,70.82
712.00,70.63
711.00,70.44
710.00,70.26
709.00,70.08
708.00,69.88
707.00,69.68
706.00,69.49
705.00,69.30
704.00,69.09
703.00,68.88
702.00,68.69
701.00,68.49
700.00,68.27
699.00,68.04
698.00,67.82
697.00,67.59
696.00,67.34
695.00,67.08
694.00,66.83
693.00,66.55
692.00,66.24
691.00,65.91
690.00,65.59
689.00,65.25
688.00,64.85
687.00,64.45
686.00,64.05
685.00,63.63
684.00,63.18
683.00,62.73
682.00,62.31
681.00,61.89
680.00,61.46
679.00,61.05
678.00,60.69
677.00,60.36
676.00,60.04
675.00,59.77
674.00,59.57
673.00,59.41
672.00,59.27
671.00,59.19
670.00,59.18
669.00,59.26
668.00,59.34
667.00,59.34
666.00,59.27
665.00,59.20
664.00,59.14
663.00,59.11
662.00,59.12
661.00,59.13
660.00,59.09
659.00,59.05
658.00,59.03
657.00,58.98
656.00,58.90
655.00,58.85
654.00,58.82
653.00,58.79
652.00,58.71
651.00,58.65
650.00,58.64
649.00,58.62
648.00,58.57
647.00,58.54
646.00,58.56
645.00,58.57
644.00,58.54
643.00,58.53
642.00,58.55
641.00,58.57
640.00,58.56
639.00,58.56
638.00,58.61
637.00,58.63
636.00,58.60
635.00,58.57
634.00,58.58
633.00,58.57
632.00,58.50
631.00,58.44
630.00,58.43
629.00,58.41
628.00,58.33
627.00,58.26
626.00,58.25
625.00,58.23
624.00,58.15
623.00,58.08
622.00,58.07
621.00,58.04
620.00,57.94
619.00,57.88
618.00,57.91
617.00,57.90
616.00,57.80
615.00,57.71
614.00,57.71
613.00,57.69
612.00,57.57
611.00,57.49
610.00,57.51
609.00,57.50
608.00,57.41
607.00,57.37
606.00,57.42
605.00,57.43
604.00,57.32
603.00,57.24
602.00,57.25
601.00,57.24
600.00,57.17
599.00,57.17
598.00,57.29
597.00,57.37
596.00,57.33
595.00,57.29
594.00,57.36
593.00,57.38
592.00,57.28
591.00,57.23
590.00,57.33
589.00,57.37
588.00,57.26
587.00,57.17
586.00,57.25
585.00,57.30
584.00,57.20
583.00,57.14
582.00,57.25
581.00,57.30
580.00,57.14
579.00,57.05
578.00,57.16
577.00,57.15
576.00,56.83
575.00,56.57
574.00,56.58
573.00,56.50
572.00,56.09
571.00,55.71
570.00,55.60
569.00,55.42
568.00,54.97
567.00,54.64
566.00,54.66
565.00,54.65
564.00,54.35
563.00,54.14
562.00,54.22
561.00,54.16
560.00,53.79
559.00,53.60
558.00,53.82
557.00,53.97
556.00,53.72
555.00,53.49
554.00,53.59
553.00,53.60
552.00,53.28
551.00,53.15
550.00,53.50
549.00,53.77
548.00,53.59
547.00,53.50
546.00,53.87
545.00,54.09
544.00,53.83
543.00,53.77
542.00,54.32
541.00,54.76
540.00,54.60
539.00,54.54
538.00,55.07
537.00,55.44
536.00,55.11
535.00,54.96
534.00,55.58
533.00,56.01
532.00,55.59
531.00,55.38
530.00,56.27
529.00,57.11
528.00,56.82
527.00,56.51
526.00,57.40
525.00,58.00
524.00,57.01
523.00,56.40
522.00,57.55
521.00,58.21
520.00,56.49
519.00,55.65
518.00,58.41
517.00,60.15
516.00,56.42
515.00,52.56
514.00,55.25
513.00,58.50
512.00,56.09
511.00,52.79
510.00,64.36
509.00,61.95
508.00,65.54
507.00,26.62
506.00,72.56
505.00,46.53
504.00,104.19
503.00,397.77
502.00,114.93
501.00,44.91
500.00,112.96
499.00,166.59
498.00,87.09
497.00,53.31
496.00,125.24
495.00,142.69
494.00,51.07
493.00,51.23
492.00,141.72
491.00,101.97
490.00,62.83
489.00,73.22
488.00,29.47
487.00,77.78
486.00,113.14
485.00,94.78
484.00,106.98
483.00,108.23
482.00,111.83
481.00,53.00
480.00,84.97
479.00,80.25
478.00,80.06
477.00,96.02
476.00,76.70
475.00,116.00
474.00,76.28
473.00,39.73
472.00,93.81
471.00,87.48
470.00,89.75
469.00,93.91
468.00,80.56
467.00,78.07
466.00,124.92
465.00,113.12
464.00,80.56
463.00,74.29
462.00,81.23
461.00,90.28
460.00,114.35
459.00,86.33
458.00,88.96
457.00,84.88
456.00,95.78
455.00,125.50
454.00,117.11
453.00,34.33
452.00,85.79
451.00,60.10
450.00,87.13
449.00,250.86
448.00,92.60
447.00,58.56
446.00,85.27
445.00,73.44
444.00,81.91
443.00,73.56
442.00,95.07
441.00,87.27
440.00,85.08
439.00,138.38
438.00,78.08
437.00,75.24
436.00,196.78
435.00,159.20
434.00,608.00
433.00,146.98
432.00,89.47
431.00,93.88
430.00,60.71
429.00,120.46
428.00,106.97
427.00,117.53
426.00,106.14
425.00,33.95
424.00,99.01
423.00,126.83
422.00,84.50
421.00,72.45
420.00,104.67
419.00,157.85
418.00,87.40
417.00,30.50
416.00,100.50
415.00,113.37
414.00,81.00
413.00,85.23
412.00,90.55
411.00,125.16
410.00,4.27
409.00,73.59
408.00,602.18
407.00,188.34
406.00,100.00
405.00,72.76
404.00,161.96
403.00,151.40
402.00,149.51
401.00,66.69
400.00,88.36
