Created as New Dataset,Sample 000 By FTIR User 2.0 Date Friday, March 01 2024
cm-1,%T
4000.00,97.68
3999.00,97.68
3998.00,97.68
3997.00,97.67
3996.00,97.68
3995.00,97.69
3994.00,97.69
3993.00,97.69
3992.00,97.69
3991.00,97.69
3990.00,97.69
3989.00,97.69
3988.00,97.70
3987.00,97.70
3986.00,97.70
3985.00,97.69
3984.00,97.69
3983.00,97.69
3982.00,97.70
3981.00,97.70
3980.00,97.70
3979.00,97.70
3978.00,97.70
3977.00,97.69
3976.00,97.69
3975.00,97.69
3974.00,97.69
3973.00,97.69
3972.00,97.70
3971.00,97.70
3970.00,97.70
3969.00,97.70
3968.00,97.70
3967.00,97.70
3966.00,97.69
3965.00,97.70
3964.00,97.70
3963.00,97.70
3962.00,97.70
3961.00,97.71
3960.00,97.71
3959.00,97.71
3958.00,97.70
3957.00,97.71
3956.00,97.71
3955.00,97.71
3954.00,97.70
3953.00,97.70
3952.00,97.70
3951.00,97.70
3950.00,97.70
3949.00,97.70
3948.00,97.70
3947.00,97.70
3946.00,97.70
3945.00,97.70
3944.00,97.70
3943.00,97.71
3942.00,97.72
3941.00,97.73
3940.00,97.73
3939.00,97.72
3938.00,97.72
3937.00,97.72
3936.00,97.71
3935.00,97.71
3934.00,97.71
3933.00,97.71
3932.00,97.71
3931.00,97.71
3930.00,97.72
3929.00,97.72
3928.00,97.72
3927.00,97.71
3926.00,97.71
3925.00,97.72
3924.00,97.72
3923.00,97.73
3922.00,97.73
3921.00,97.72
3920.00,97.72
3919.00,97.72
3918.00,97.73
3917.00,97.73
3916.00,97.74
3915.00,97.74
3914.00,97.75
3913.00,97.75
3912.00,97.75
3911.00,97.75
3910.00,97.75
3909.00,97.75
3908.00,97.75
3907.00,97.74
3906.00,97.73
3905.00,97.73
3904.00,97.73
3903.00,97.72
3902.00,97.72
3901.00,97.71
3900.00,97.72
3899.00,97.73
3898.00,97.74
3897.00,97.74
3896.00,97.74
3895.00,97.74
3894.00,97.74
3893.00,97.75
3892.00,97.76
3891.00,97.76
3890.00,97.76
3889.00,97.75
3888.00,97.75
3887.00,97.74
3886.00,97.73
3885.00,97.74
3884.00,97.75
3883.00,97.75
3882.00,97.75
3881.00,97.76
3880.00,97.78
3879.00,97.78
3878.00,97.78
3877.00,97.77
3876.00,97.76
3875.00,97.76
3874.00,97.76
3873.00,97.77
3872.00,97.77
3871.00,97.77
3870.00,97.76
3869.00,97.76
3868.00,97.75
3867.00,97.74
3866.00,97.73
3865.00,97.73
3864.00,97.75
3863.00,97.77
3862.00,97.77
3861.00,97.76
3860.00,97.75
3859.00,97.75
3858.00,97.76
3857.00,97.77
3856.00,97.78
3855.00,97.78
3854.00,97.77
3853.00,97.76
3852.00,97.76
3851.00,97.77
3850.00,97.76
3849.00,97.76
3848.00,97.75
3847.00,97.75
3846.00,97.75
3845.00,97.75
3844.00,97.76
3843.00,97.76
3842.00,97.76
3841.00,97.76
3840.00,97.76
3839.00,97.76
3838.00,97.77
3837.00,97.77
3836.00,97.77
3835.00,97.77
3834.00,97.77
3833.00,97.77
3832.00,97.77
3831.00,97.77
3830.00,97.76
3829.00,97.76
3828.00,97.76
3827.00,97.76
3826.00,97.76
3825.00,97.76
3824.00,97.75
3823.00,97.75
3822.00,97.74
3821.00,97.75
3820.00,97.76
3819.00,97.77
3818.00,97.76
3817.00,97.76
3816.00,97.76
3815.00,97.77
3814.00,97.78
3813.00,97.77
3812.00,97.76
3811.00,97.76
3810.00,97.76
3809.00,97.76
3808.00,97.76
3807.00,97.75
3806.00,97.74
3805.00,97.74
3804.00,97.73
3803.00,97.73
3802.00,97.72
3801.00,97.73
3800.00,97.73
3799.00,97.73
3798.00,97.73
3797.00,97.73
3796.00,97.74
3795.00,97.74
3794.00,97.74
3793.00,97.74
3792.00,97.73
3791.00,97.74
3790.00,97.74
3789.00,97.74
3788.00,97.74
3787.00,97.73
3786.00,97.73
3785.00,97.73
3784.00,97.73
3783.00,97.73
3782.00,97.72
3781.00,97.71
3780.00,97.71
3779.00,97.71
3778.00,97.71
3777.00,97.71
3776.00,97.71
3775.00,97.70
3774.00,97.70
3773.00,97.69
3772.00,97.69
3771.00,97.68
3770.00,97.68
3769.00,97.68
3768.00,97.68
3767.00,97.67
3766.00,97.67
3765.00,97.67
3764.00,97.67
3763.00,97.66
3762.00,97.65
3761.00,97.65
3760.00,97.64
3759.00,97.64
3758.00,97.64
3757.00,97.63
3756.00,97.62
3755.00,97.60
3754.00,97.59
3753.00,97.57
3752.00,97.56
3751.00,97.56
3750.00,97.55
3749.00,97.54
3748.00,97.54
3747.00,97.55
3746.00,97.57
3745.00,97.57
3744.00,97.55
3743.00,97.53
3742.00,97.51
3741.00,97.49
3740.00,97.47
3739.00,97.45
3738.00,97.43
3737.00,97.42
3736.00,97.42
3735.00,97.43
3734.00,97.45
3733.00,97.46
3732.00,97.44
3731.00,97.42
3730.00,97.41
3729.00,97.39
3728.00,97.38
3727.00,97.36
3726.00,97.35
3725.00,97.35
3724.00,97.34
3723.00,97.33
3722.00,97.32
3721.00,97.32
3720.00,97.30
3719.00,97.29
3718.00,97.26
3717.00,97.23
3716.00,97.21
3715.00,97.19
3714.00,97.17
3713.00,97.14
3712.00,97.13
3711.00,97.11
3710.00,97.10
3709.00,97.07
3708.00,97.04
3707.00,97.01
3706.00,96.98
3705.00,96.96
3704.00,96.93
3703.00,96.91
3702.00,96.88
3701.00,96.84
3700.00,96.80
3699.00,96.74
3698.00,96.69
3697.00,96.64
3696.00,96.59
3695.00,96.54
3694.00,96.50
3693.00,96.44
3692.00,96.38
3691.00,96.32
3690.00,96.25
3689.00,96.17
3688.00,96.10
3687.00,96.03
3686.00,95.97
3685.00,95.91
3684.00,95.85
3683.00,95.78
3682.00,95.71
3681.00,95.63
3680.00,95.56
3679.00,95.48
3678.00,95.41
3677.00,95.31
3676.00,95.18
3675.00,95.06
3674.00,94.95
3673.00,94.86
3672.00,94.77
3671.00,94.66
3670.00,94.55
3669.00,94.44
3668.00,94.33
3667.00,94.22
3666.00,94.11
3665.00,94.00
3664.00,93.89
3663.00,93.77
3662.00,93.65
3661.00,93.52
3660.00,93.41
3659.00,93.30
3658.00,93.19
3657.00,93.06
3656.00,92.93
3655.00,92.81
3654.00,92.70
3653.00,92.59
3652.00,92.47
3651.00,92.33
3650.00,92.18
3649.00,92.04
3648.00,91.92
3647.00,91.81
3646.00,91.69
3645.00,91.58
3644.00,91.48
3643.00,91.38
3642.00,91.28
3641.00,91.17
3640.00,91.07
3639.00,90.96
3638.00,90.85
3637.00,90.74
3636.00,90.63
3635.00,90.52
3634.00,90.41
3633.00,90.32
3632.00,90.24
3631.00,90.14
3630.00,90.02
3629.00,89.87
3628.00,89.74
3627.00,89.62
3626.00,89.52
3625.00,89.43
3624.00,89.33
3623.00,89.24
3622.00,89.14
3621.00,89.05
3620.00,88.95
3619.00,88.84
3618.00,88.74
3617.00,88.63
3616.00,88.53
3615.00,88.43
3614.00,88.33
3613.00,88.24
3612.00,88.14
3611.00,88.05
3610.00,87.94
3609.00,87.83
3608.00,87.71
3607.00,87.61
3606.00,87.51
3605.00,87.41
3604.00,87.31
3603.00,87.21
3602.00,87.10
3601.00,86.98
3600.00,86.87
3599.00,86.77
3598.00,86.68
3597.00,86.59
3596.00,86.49
3595.00,86.38
3594.00,86.27
3593.00,86.16
3592.00,86.06
3591.00,85.97
3590.00,85.86
3589.00,85.74
3588.00,85.60
3587.00,85.46
3586.00,85.33
3585.00,85.23
3584.00,85.13
3583.00,85.04
3582.00,84.94
3581.00,84.85
3580.00,84.76
3579.00,84.66
3578.00,84.55
3577.00,84.44
3576.00,84.33
3575.00,84.22
3574.00,84.10
3573.00,83.98
3572.00,83.86
3571.00,83.75
3570.00,83.63
3569.00,83.51
3568.00,83.39
3567.00,83.26
3566.00,83.14
3565.00,83.02
3564.00,82.90
3563.00,82.77
3562.00,82.65
3561.00,82.53
3560.00,82.41
3559.00,82.30
3558.00,82.19
3557.00,82.08
3556.00,81.96
3555.00,81.84
3554.00,81.71
3553.00,81.57
3552.00,81.43
3551.00,81.30
3550.00,81.18
3549.00,81.05
3548.00,80.90
3547.00,80.74
3546.00,80.57
3545.00,80.43
3544.00,80.32
3543.00,80.22
3542.00,80.13
3541.00,80.04
3540.00,79.94
3539.00,79.81
3538.00,79.67
3537.00,79.53
3536.00,79.40
3535.00,79.28
3534.00,79.18
3533.00,79.07
3532.00,78.95
3531.00,78.83
3530.00,78.70
3529.00,78.57
3528.00,78.43
3527.00,78.29
3526.00,78.13
3525.00,77.98
3524.00,77.83
3523.00,77.71
3522.00,77.61
3521.00,77.52
3520.00,77.42
3519.00,77.30
3518.00,77.16
3517.00,77.02
3516.00,76.88
3515.00,76.73
3514.00,76.59
3513.00,76.47
3512.00,76.37
3511.00,76.26
3510.00,76.15
3509.00,76.03
3508.00,75.90
3507.00,75.76
3506.00,75.62
3505.00,75.45
3504.00,75.28
3503.00,75.12
3502.00,74.99
3501.00,74.88
3500.00,74.77
3499.00,74.65
3498.00,74.52
3497.00,74.39
3496.00,74.26
3495.00,74.15
3494.00,74.04
3493.00,73.93
3492.00,73.82
3491.00,73.70
3490.00,73.57
3489.00,73.42
3488.00,73.28
3487.00,73.14
3486.00,73.02
3485.00,72.92
3484.00,72.81
3483.00,72.67
3482.00,72.51
3481.00,72.35
3480.00,72.21
3479.00,72.10
3478.00,72.01
3477.00,71.91
3476.00,71.81
3475.00,71.68
3474.00,71.55
3473.00,71.40
3472.00,71.24
3471.00,71.06
3470.00,70.88
3469.00,70.72
3468.00,70.59
3467.00,70.49
3466.00,70.42
3465.00,70.34
3464.00,70.25
3463.00,70.13
3462.00,69.99
3461.00,69.85
3460.00,69.72
3459.00,69.61
3458.00,69.52
3457.00,69.42
3456.00,69.31
3455.00,69.19
3454.00,69.07
3453.00,68.94
3452.00,68.82
3451.00,68.69
3450.00,68.56
3449.00,68.43
3448.00,68.29
3447.00,68.16
3446.00,68.04
3445.00,67.93
3444.00,67.82
3443.00,67.70
3442.00,67.57
3441.00,67.43
3440.00,67.27
3439.00,67.10
3438.00,66.92
3437.00,66.75
3436.00,66.62
3435.00,66.51
3434.00,66.41
3433.00,66.32
3432.00,66.22
3431.00,66.10
3430.00,65.98
3429.00,65.88
3428.00,65.80
3427.00,65.72
3426.00,65.64
3425.00,65.55
3424.00,65.44
3423.00,65.32
3422.00,65.20
3421.00,65.07
3420.00,64.96
3419.00,64.87
3418.00,64.78
3417.00,64.67
3416.00,64.54
3415.00,64.40
3414.00,64.26
3413.00,64.13
3412.00,64.03
3411.00,63.93
3410.00,63.84
3409.00,63.75
3408.00,63.67
3407.00,63.59
3406.00,63.51
3405.00,63.39
3404.00,63.25
3403.00,63.10
3402.00,62.95
3401.00,62.84
3400.00,62.77
3399.00,62.73
3398.00,62.70
3397.00,62.65
3396.00,62.58
3395.00,62.48
3394.00,62.37
3393.00,62.26
3392.00,62.18
3391.00,62.13
3390.00,62.11
3389.00,62.10
3388.00,62.07
3387.00,62.02
3386.00,61.96
3385.00,61.90
3384.00,61.83
3383.00,61.76
3382.00,61.69
3381.00,61.61
3380.00,61.55
3379.00,61.49
3378.00,61.43
3377.00,61.38
3376.00,61.34
3375.00,61.29
3374.00,61.24
3373.00,61.17
3372.00,61.08
3371.00,60.98
3370.00,60.90
3369.00,60.84
3368.00,60.80
3367.00,60.80
3366.00,60.81
3365.00,60.82
3364.00,60.82
3363.00,60.80
3362.00,60.76
3361.00,60.73
3360.00,60.70
3359.00,60.69
3358.00,60.69
3357.00,60.67
3356.00,60.65
3355.00,60.61
3354.00,60.57
3353.00,60.51
3352.00,60.45
3351.00,60.41
3350.00,60.39
3349.00,60.41
3348.00,60.42
3347.00,60.43
3346.00,60.41
3345.00,60.37
3344.00,60.33
3343.00,60.31
3342.00,60.28
3341.00,60.26
3340.00,60.23
3339.00,60.21
3338.00,60.20
3337.00,60.21
3336.00,60.24
3335.00,60.27
3334.00,60.28
3333.00,60.28
3332.00,60.28
3331.00,60.27
3330.00,60.25
3329.00,60.23
3328.00,60.21
3327.00,60.17
3326.00,60.15
3325.00,60.15
3324.00,60.17
3323.00,60.19
3322.00,60.21
3321.00,60.22
3320.00,60.23
3319.00,60.23
3318.00,60.23
3317.00,60.23
3316.00,60.23
3315.00,60.23
3314.00,60.22
3313.00,60.21
3312.00,60.19
3311.00,60.17
3310.00,60.13
3309.00,60.10
3308.00,60.08
3307.00,60.07
3306.00,60.08
3305.00,60.10
3304.00,60.14
3303.00,60.18
3302.00,60.22
3301.00,60.24
3300.00,60.25
3299.00,60.24
3298.00,60.23
3297.00,60.21
3296.00,60.19
3295.00,60.19
3294.00,60.19
3293.00,60.20
3292.00,60.21
3291.00,60.24
3290.00,60.28
3289.00,60.31
3288.00,60.33
3287.00,60.35
3286.00,60.35
3285.00,60.36
3284.00,60.37
3283.00,60.38
3282.00,60.39
3281.00,60.39
3280.00,60.40
3279.00,60.40
3278.00,60.40
3277.00,60.39
3276.00,60.38
3275.00,60.38
3274.00,60.37
3273.00,60.37
3272.00,60.37
3271.00,60.39
3270.00,60.42
3269.00,60.47
3268.00,60.52
3267.00,60.56
3266.00,60.59
3265.00,60.62
3264.00,60.64
3263.00,60.66
3262.00,60.68
3261.00,60.70
3260.00,60.72
3259.00,60.74
3258.00,60.74
3257.00,60.75
3256.00,60.77
3255.00,60.81
3254.00,60.85
3253.00,60.90
3252.00,60.94
3251.00,60.97
3250.00,60.98
3249.00,60.99
3248.00,61.01
3247.00,61.04
3246.00,61.09
3245.00,61.15
3244.00,61.22
3243.00,61.29
3242.00,61.34
3241.00,61.39
3240.00,61.43
3239.00,61.48
3238.00,61.52
3237.00,61.55
3236.00,61.57
3235.00,61.59
3234.00,61.63
3233.00,61.69
3232.00,61.78
3231.00,61.88
3230.00,61.98
3229.00,62.07
3228.00,62.15
3227.00,62.22
3226.00,62.29
3225.00,62.37
3224.00,62.45
3223.00,62.53
3222.00,62.60
3221.00,62.67
3220.00,62.75
3219.00,62.83
3218.00,62.92
3217.00,63.01
3216.00,63.10
3215.00,63.20
3214.00,63.30
3213.00,63.41
3212.00,63.52
3211.00,63.62
3210.00,63.72
3209.00,63.82
3208.00,63.93
3207.00,64.03
3206.00,64.15
3205.00,64.26
3204.00,64.38
3203.00,64.50
3202.00,64.63
3201.00,64.75
3200.00,64.88
3199.00,65.00
3198.00,65.13
3197.00,65.25
3196.00,65.38
3195.00,65.51
3194.00,65.64
3193.00,65.78
3192.00,65.91
3191.00,66.05
3190.00,66.18
3189.00,66.32
3188.00,66.47
3187.00,66.62
3186.00,66.76
3185.00,66.91
3184.00,67.06
3183.00,67.20
3182.00,67.35
3181.00,67.50
3180.00,67.65
3179.00,67.81
3178.00,67.96
3177.00,68.12
3176.00,68.28
3175.00,68.43
3174.00,68.59
3173.00,68.75
3172.00,68.91
3171.00,69.07
3170.00,69.24
3169.00,69.40
3168.00,69.56
3167.00,69.72
3166.00,69.88
3165.00,70.05
3164.00,70.21
3163.00,70.38
3162.00,70.54
3161.00,70.71
3160.00,70.88
3159.00,71.05
3158.00,71.21
3157.00,71.36
3156.00,71.50
3155.00,71.63
3154.00,71.77
3153.00,71.92
3152.00,72.10
3151.00,72.29
3150.00,72.50
3149.00,72.70
3148.00,72.89
3147.00,73.07
3146.00,73.24
3145.00,73.41
3144.00,73.58
3143.00,73.73
3142.00,73.88
3141.00,74.02
3140.00,74.16
3139.00,74.32
3138.00,74.51
3137.00,74.71
3136.00,74.91
3135.00,75.09
3134.00,75.27
3133.00,75.43
3132.00,75.58
3131.00,75.74
3130.00,75.90
3129.00,76.07
3128.00,76.24
3127.00,76.42
3126.00,76.58
3125.00,76.74
3124.00,76.89
3123.00,77.02
3122.00,77.16
3121.00,77.29
3120.00,77.43
3119.00,77.58
3118.00,77.74
3117.00,77.90
3116.00,78.08
3115.00,78.26
3114.00,78.44
3113.00,78.61
3112.00,78.77
3111.00,78.92
3110.00,79.06
3109.00,79.21
3108.00,79.36
3107.00,79.53
3106.00,79.70
3105.00,79.86
3104.00,80.01
3103.00,80.15
3102.00,80.28
3101.00,80.42
3100.00,80.56
3099.00,80.71
3098.00,80.87
3097.00,81.03
3096.00,81.18
3095.00,81.32
3094.00,81.45
3093.00,81.58
3092.00,81.70
3091.00,81.82
3090.00,81.95
3089.00,82.08
3088.00,82.22
3087.00,82.36
3086.00,82.49
3085.00,82.61
3084.00,82.74
3083.00,82.87
3082.00,83.00
3081.00,83.12
3080.00,83.25
3079.00,83.38
3078.00,83.52
3077.00,83.67
3076.00,83.82
3075.00,83.97
3074.00,84.11
3073.00,84.24
3072.00,84.37
3071.00,84.49
3070.00,84.60
3069.00,84.72
3068.00,84.83
3067.00,84.95
3066.00,85.08
3065.00,85.22
3064.00,85.35
3063.00,85.48
3062.00,85.61
3061.00,85.73
3060.00,85.85
3059.00,85.96
3058.00,86.07
3057.00,86.18
3056.00,86.30
3055.00,86.41
3054.00,86.53
3053.00,86.64
3052.00,86.75
3051.00,86.86
3050.00,86.97
3049.00,87.09
3048.00,87.20
3047.00,87.30
3046.00,87.40
3045.00,87.50
3044.00,87.59
3043.00,87.69
3042.00,87.80
3041.00,87.91
3040.00,88.03
3039.00,88.14
3038.00,88.25
3037.00,88.35
3036.00,88.43
3035.00,88.52
3034.00,88.61
3033.00,88.71
3032.00,88.81
3031.00,88.92
3030.00,89.03
3029.00,89.13
3028.00,89.23
3027.00,89.32
3026.00,89.40
3025.00,89.48
3024.00,89.57
3023.00,89.66
3022.00,89.75
3021.00,89.83
3020.00,89.91
3019.00,89.99
3018.00,90.06
3017.00,90.14
3016.00,90.21
3015.00,90.28
3014.00,90.36
3013.00,90.44
3012.00,90.52
3011.00,90.61
3010.00,90.70
3009.00,90.78
3008.00,90.87
3007.00,90.95
3006.00,91.02
3005.00,91.10
3004.00,91.17
3003.00,91.24
3002.00,91.31
3001.00,91.38
3000.00,91.44
2999.00,91.49
2998.00,91.55
2997.00,91.62
2996.00,91.68
2995.00,91.75
2994.00,91.81
2993.00,91.87
2992.00,91.93
2991.00,92.00
2990.00,92.07
2989.00,92.13
2988.00,92.19
2987.00,92.25
2986.00,92.31
2985.00,92.36
2984.00,92.42
2983.00,92.48
2982.00,92.54
2981.00,92.60
2980.00,92.65
2979.00,92.70
2978.00,92.75
2977.00,92.80
2976.00,92.86
2975.00,92.91
2974.00,92.96
2973.00,93.01
2972.00,93.07
2971.00,93.12
2970.00,93.17
2969.00,93.22
2968.00,93.26
2967.00,93.30
2966.00,93.33
2965.00,93.37
2964.00,93.40
2963.00,93.44
2962.00,93.49
2961.00,93.53
2960.00,93.58
2959.00,93.63
2958.00,93.67
2957.00,93.71
2956.00,93.75
2955.00,93.79
2954.00,93.83
2953.00,93.87
2952.00,93.91
2951.00,93.96
2950.00,94.01
2949.00,94.05
2948.00,94.09
2947.00,94.13
2946.00,94.16
2945.00,94.20
2944.00,94.24
2943.00,94.28
2942.00,94.32
2941.00,94.37
2940.00,94.41
2939.00,94.44
2938.00,94.47
2937.00,94.50
2936.00,94.53
2935.00,94.57
2934.00,94.61
2933.00,94.64
2932.00,94.67
2931.00,94.69
2930.00,94.73
2929.00,94.76
2928.00,94.80
2927.00,94.83
2926.00,94.87
2925.00,94.90
2924.00,94.93
2923.00,94.96
2922.00,94.99
2921.00,95.02
2920.00,95.05
2919.00,95.08
2918.00,95.11
2917.00,95.14
2916.00,95.19
2915.00,95.23
2914.00,95.29
2913.00,95.34
2912.00,95.39
2911.00,95.45
2910.00,95.50
2909.00,95.54
2908.00,95.59
2907.00,95.63
2906.00,95.67
2905.00,95.70
2904.00,95.74
2903.00,95.78
2902.00,95.81
2901.00,95.84
2900.00,95.87
2899.00,95.90
2898.00,95.92
2897.00,95.95
2896.00,95.98
2895.00,96.01
2894.00,96.04
2893.00,96.06
2892.00,96.09
2891.00,96.12
2890.00,96.15
2889.00,96.18
2888.00,96.20
2887.00,96.23
2886.00,96.25
2885.00,96.28
2884.00,96.30
2883.00,96.32
2882.00,96.35
2881.00,96.37
2880.00,96.39
2879.00,96.42
2878.00,96.44
2877.00,96.46
2876.00,96.48
2875.00,96.50
2874.00,96.52
2873.00,96.54
2872.00,96.56
2871.00,96.59
2870.00,96.62
2869.00,96.64
2868.00,96.67
2867.00,96.69
2866.00,96.71
2865.00,96.73
2864.00,96.75
2863.00,96.76
2862.00,96.78
2861.00,96.79
2860.00,96.80
2859.00,96.81
2858.00,96.83
2857.00,96.84
2856.00,96.85
2855.00,96.86
2854.00,96.87
2853.00,96.87
2852.00,96.88
2851.00,96.89
2850.00,96.90
2849.00,96.92
2848.00,96.94
2847.00,96.98
2846.00,97.02
2845.00,97.06
2844.00,97.09
2843.00,97.12
2842.00,97.14
2841.00,97.16
2840.00,97.18
2839.00,97.20
2838.00,97.23
2837.00,97.25
2836.00,97.27
2835.00,97.28
2834.00,97.30
2833.00,97.31
2832.00,97.33
2831.00,97.34
2830.00,97.36
2829.00,97.37
2828.00,97.38
2827.00,97.40
2826.00,97.41
2825.00,97.42
2824.00,97.43
2823.00,97.44
2822.00,97.46
2821.00,97.47
2820.00,97.48
2819.00,97.49
2818.00,97.51
2817.00,97.52
2816.00,97.53
2815.00,97.54
2814.00,97.55
2813.00,97.56
2812.00,97.58
2811.00,97.59
2810.00,97.60
2809.00,97.61
2808.00,97.62
2807.00,97.63
2806.00,97.64
2805.00,97.65
2804.00,97.66
2803.00,97.67
2802.00,97.68
2801.00,97.69
2800.00,97.70
2799.00,97.71
2798.00,97.71
2797.00,97.72
2796.00,97.73
2795.00,97.74
2794.00,97.76
2793.00,97.77
2792.00,97.78
2791.00,97.79
2790.00,97.80
2789.00,97.81
2788.00,97.82
2787.00,97.83
2786.00,97.84
2785.00,97.85
2784.00,97.85
2783.00,97.86
2782.00,97.87
2781.00,97.87
2780.00,97.88
2779.00,97.89
2778.00,97.90
2777.00,97.91
2776.00,97.92
2775.00,97.92
2774.00,97.93
2773.00,97.95
2772.00,97.95
2771.00,97.96
2770.00,97.97
2769.00,97.97
2768.00,97.98
2767.00,97.99
2766.00,98.00
2765.00,98.01
2764.00,98.01
2763.00,98.02
2762.00,98.03
2761.00,98.03
2760.00,98.03
2759.00,98.04
2758.00,98.05
2757.00,98.05
2756.00,98.06
2755.00,98.07
2754.00,98.07
2753.00,98.08
2752.00,98.09
2751.00,98.09
2750.00,98.10
2749.00,98.10
2748.00,98.11
2747.00,98.11
2746.00,98.12
2745.00,98.13
2744.00,98.14
2743.00,98.14
2742.00,98.15
2741.00,98.16
2740.00,98.16
2739.00,98.17
2738.00,98.17
2737.00,98.17
2736.00,98.18
2735.00,98.18
2734.00,98.19
2733.00,98.20
2732.00,98.20
2731.00,98.21
2730.00,98.21
2729.00,98.22
2728.00,98.22
2727.00,98.22
2726.00,98.23
2725.00,98.23
2724.00,98.24
2723.00,98.24
2722.00,98.25
2721.00,98.25
2720.00,98.26
2719.00,98.26
2718.00,98.27
2717.00,98.27
2716.00,98.27
2715.00,98.27
2714.00,98.28
2713.00,98.28
2712.00,98.29
2711.00,98.29
2710.00,98.29
2709.00,98.30
2708.00,98.30
2707.00,98.30
2706.00,98.31
2705.00,98.31
2704.00,98.31
2703.00,98.32
2702.00,98.32
2701.00,98.33
2700.00,98.33
2699.00,98.33
2698.00,98.34
2697.00,98.34
2696.00,98.34
2695.00,98.35
2694.00,98.35
2693.00,98.35
2692.00,98.35
2691.00,98.35
2690.00,98.36
2689.00,98.36
2688.00,98.37
2687.00,98.37
2686.00,98.37
2685.00,98.38
2684.00,98.38
2683.00,98.38
2682.00,98.38
2681.00,98.39
2680.00,98.39
2679.00,98.39
2678.00,98.39
2677.00,98.39
2676.00,98.39
2675.00,98.39
2674.00,98.40
2673.00,98.40
2672.00,98.40
2671.00,98.41
2670.00,98.41
2669.00,98.41
2668.00,98.42
2667.00,98.42
2666.00,98.42
2665.00,98.42
2664.00,98.42
2663.00,98.42
2662.00,98.43
2661.00,98.43
2660.00,98.43
2659.00,98.43
2658.00,98.43
2657.00,98.43
2656.00,98.43
2655.00,98.44
2654.00,98.44
2653.00,98.44
2652.00,98.45
2651.00,98.45
2650.00,98.45
2649.00,98.45
2648.00,98.45
2647.00,98.45
2646.00,98.45
2645.00,98.45
2644.00,98.45
2643.00,98.45
2642.00,98.45
2641.00,98.45
2640.00,98.46
2639.00,98.46
2638.00,98.46
2637.00,98.46
2636.00,98.47
2635.00,98.47
2634.00,98.47
2633.00,98.47
2632.00,98.47
2631.00,98.47
2630.00,98.47
2629.00,98.47
2628.00,98.47
2627.00,98.47
2626.00,98.47
2625.00,98.47
2624.00,98.47
2623.00,98.48
2622.00,98.48
2621.00,98.48
2620.00,98.49
2619.00,98.49
2618.00,98.49
2617.00,98.48
2616.00,98.48
2615.00,98.48
2614.00,98.48
2613.00,98.48
2612.00,98.48
2611.00,98.48
2610.00,98.48
2609.00,98.49
2608.00,98.49
2607.00,98.50
2606.00,98.50
2605.00,98.50
2604.00,98.49
2603.00,98.49
2602.00,98.49
2601.00,98.49
2600.00,98.49
2599.00,98.49
2598.00,98.50
2597.00,98.50
2596.00,98.50
2595.00,98.49
2594.00,98.49
2593.00,98.49
2592.00,98.49
2591.00,98.49
2590.00,98.49
2589.00,98.49
2588.00,98.49
2587.00,98.49
2586.00,98.49
2585.00,98.49
2584.00,98.49
2583.00,98.49
2582.00,98.50
2581.00,98.49
2580.00,98.49
2579.00,98.49
2578.00,98.48
2577.00,98.48
2576.00,98.48
2575.00,98.48
2574.00,98.48
2573.00,98.48
2572.00,98.48
2571.00,98.48
2570.00,98.48
2569.00,98.48
2568.00,98.48
2567.00,98.48
2566.00,98.48
2565.00,98.48
2564.00,98.48
2563.00,98.48
2562.00,98.48
2561.00,98.48
2560.00,98.47
2559.00,98.47
2558.00,98.48
2557.00,98.48
2556.00,98.48
2555.00,98.47
2554.00,98.47
2553.00,98.47
2552.00,98.46
2551.00,98.46
2550.00,98.46
2549.00,98.46
2548.00,98.46
2547.00,98.45
2546.00,98.45
2545.00,98.45
2544.00,98.45
2543.00,98.44
2542.00,98.45
2541.00,98.45
2540.00,98.45
2539.00,98.45
2538.00,98.45
2537.00,98.44
2536.00,98.44
2535.00,98.44
2534.00,98.44
2533.00,98.43
2532.00,98.43
2531.00,98.42
2530.00,98.42
2529.00,98.42
2528.00,98.41
2527.00,98.41
2526.00,98.41
2525.00,98.41
2524.00,98.41
2523.00,98.41
2522.00,98.41
2521.00,98.40
2520.00,98.40
2519.00,98.40
2518.00,98.40
2517.00,98.40
2516.00,98.39
2515.00,98.39
2514.00,98.39
2513.00,98.39
2512.00,98.39
2511.00,98.39
2510.00,98.38
2509.00,98.38
2508.00,98.38
2507.00,98.38
2506.00,98.38
2505.00,98.37
2504.00,98.37
2503.00,98.37
2502.00,98.37
2501.00,98.37
2500.00,98.36
2499.00,98.36
2498.00,98.36
2497.00,98.35
2496.00,98.35
2495.00,98.35
2494.00,98.35
2493.00,98.35
2492.00,98.34
2491.00,98.34
2490.00,98.34
2489.00,98.34
2488.00,98.33
2487.00,98.33
2486.00,98.33
2485.00,98.33
2484.00,98.32
2483.00,98.32
2482.00,98.32
2481.00,98.31
2480.00,98.31
2479.00,98.31
2478.00,98.31
2477.00,98.31
2476.00,98.30
2475.00,98.30
2474.00,98.29
2473.00,98.29
2472.00,98.29
2471.00,98.29
2470.00,98.29
2469.00,98.29
2468.00,98.29
2467.00,98.29
2466.00,98.29
2465.00,98.28
2464.00,98.27
2463.00,98.27
2462.00,98.27
2461.00,98.26
2460.00,98.26
2459.00,98.26
2458.00,98.26
2457.00,98.25
2456.00,98.25
2455.00,98.25
2454.00,98.25
2453.00,98.25
2452.00,98.24
2451.00,98.24
2450.00,98.24
2449.00,98.23
2448.00,98.22
2447.00,98.22
2446.00,98.22
2445.00,98.22
2444.00,98.22
2443.00,98.22
2442.00,98.22
2441.00,98.21
2440.00,98.20
2439.00,98.20
2438.00,98.20
2437.00,98.19
2436.00,98.19
2435.00,98.19
2434.00,98.18
2433.00,98.18
2432.00,98.17
2431.00,98.17
2430.00,98.17
2429.00,98.17
2428.00,98.17
2427.00,98.16
2426.00,98.16
2425.00,98.15
2424.00,98.15
2423.00,98.15
2422.00,98.14
2421.00,98.14
2420.00,98.13
2419.00,98.12
2418.00,98.12
2417.00,98.12
2416.00,98.11
2415.00,98.11
2414.00,98.11
2413.00,98.11
2412.00,98.11
2411.00,98.11
2410.00,98.10
2409.00,98.10
2408.00,98.09
2407.00,98.09
2406.00,98.09
2405.00,98.08
2404.00,98.08
2403.00,98.07
2402.00,98.06
2401.00,98.06
2400.00,98.05
2399.00,98.05
2398.00,98.05
2397.00,98.05
2396.00,98.04
2395.00,98.04
2394.00,98.04
2393.00,98.04
2392.00,98.03
2391.00,98.02
2390.00,98.02
2389.00,98.01
2388.00,98.01
2387.00,98.00
2386.00,97.99
2385.00,97.99
2384.00,97.98
2383.00,97.97
2382.00,97.97
2381.00,97.96
2380.00,97.96
2379.00,97.96
2378.00,97.97
2377.00,97.96
2376.00,97.96
2375.00,97.95
2374.00,97.95
2373.00,97.94
2372.00,97.93
2371.00,97.92
2370.00,97.91
2369.00,97.91
2368.00,97.90
2367.00,97.89
2366.00,97.89
2365.00,97.89
2364.00,97.87
2363.00,97.87
2362.00,97.87
2361.00,97.87
2360.00,97.86
2359.00,97.86
2358.00,97.86
2357.00,97.86
2356.00,97.84
2355.00,97.82
2354.00,97.80
2353.00,97.79
2352.00,97.79
2351.00,97.79
2350.00,97.79
2349.00,97.80
2348.00,97.80
2347.00,97.80
2346.00,97.80
2345.00,97.80
2344.00,97.78
2343.00,97.77
2342.00,97.76
2341.00,97.76
2340.00,97.75
2339.00,97.76
2338.00,97.75
2337.00,97.75
2336.00,97.73
2335.00,97.72
2334.00,97.72
2333.00,97.72
2332.00,97.71
2331.00,97.70
2330.00,97.70
2329.00,97.69
2328.00,97.69
2327.00,97.68
2326.00,97.67
2325.00,97.67
2324.00,97.66
2323.00,97.66
2322.00,97.66
2321.00,97.65
2320.00,97.64
2319.00,97.64
2318.00,97.63
2317.00,97.63
2316.00,97.62
2315.00,97.61
2314.00,97.61
2313.00,97.60
2312.00,97.60
2311.00,97.59
2310.00,97.59
2309.00,97.58
2308.00,97.57
2307.00,97.57
2306.00,97.56
2305.00,97.56
2304.00,97.56
2303.00,97.55
2302.00,97.55
2301.00,97.54
2300.00,97.53
2299.00,97.52
2298.00,97.51
2297.00,97.51
2296.00,97.50
2295.00,97.49
2294.00,97.49
2293.00,97.48
2292.00,97.48
2291.00,97.47
2290.00,97.47
2289.00,97.46
2288.00,97.46
2287.00,97.45
2286.00,97.45
2285.00,97.43
2284.00,97.42
2283.00,97.41
2282.00,97.41
2281.00,97.40
2280.00,97.40
2279.00,97.40
2278.00,97.39
2277.00,97.38
2276.00,97.37
2275.00,97.36
2274.00,97.36
2273.00,97.35
2272.00,97.34
2271.00,97.33
2270.00,97.32
2269.00,97.32
2268.00,97.31
2267.00,97.31
2266.00,97.30
2265.00,97.29
2264.00,97.28
2263.00,97.26
2262.00,97.25
2261.00,97.24
2260.00,97.23
2259.00,97.21
2258.00,97.21
2257.00,97.20
2256.00,97.20
2255.00,97.20
2254.00,97.19
2253.00,97.19
2252.00,97.17
2251.00,97.16
2250.00,97.16
2249.00,97.15
2248.00,97.14
2247.00,97.14
2246.00,97.14
2245.00,97.13
2244.00,97.12
2243.00,97.11
2242.00,97.11
2241.00,97.10
2240.00,97.10
2239.00,97.09
2238.00,97.08
2237.00,97.07
2236.00,97.05
2235.00,97.04
2234.00,97.04
2233.00,97.04
2232.00,97.02
2231.00,97.01
2230.00,97.00
2229.00,96.99
2228.00,96.97
2227.00,96.96
2226.00,96.96
2225.00,96.96
2224.00,96.95
2223.00,96.94
2222.00,96.94
2221.00,96.93
2220.00,96.91
2219.00,96.90
2218.00,96.89
2217.00,96.88
2216.00,96.86
2215.00,96.86
2214.00,96.86
2213.00,96.87
2212.00,96.86
2211.00,96.85
2210.00,96.84
2209.00,96.83
2208.00,96.81
2207.00,96.80
2206.00,96.80
2205.00,96.80
2204.00,96.79
2203.00,96.78
2202.00,96.77
2201.00,96.76
2200.00,96.75
2199.00,96.75
2198.00,96.74
2197.00,96.73
2196.00,96.71
2195.00,96.69
2194.00,96.69
2193.00,96.69
2192.00,96.69
2191.00,96.68
2190.00,96.68
2189.00,96.66
2188.00,96.64
2187.00,96.62
2186.00,96.62
2185.00,96.63
2184.00,96.63
2183.00,96.63
2182.00,96.63
2181.00,96.62
2180.00,96.60
2179.00,96.60
2178.00,96.60
2177.00,96.59
2176.00,96.58
2175.00,96.57
2174.00,96.57
2173.00,96.56
2172.00,96.55
2171.00,96.55
2170.00,96.55
2169.00,96.55
2168.00,96.55
2167.00,96.56
2166.00,96.56
2165.00,96.56
2164.00,96.55
2163.00,96.53
2162.00,96.51
2161.00,96.50
2160.00,96.48
2159.00,96.48
2158.00,96.49
2157.00,96.49
2156.00,96.48
2155.00,96.48
2154.00,96.47
2153.00,96.46
2152.00,96.45
2151.00,96.44
2150.00,96.44
2149.00,96.43
2148.00,96.41
2147.00,96.41
2146.00,96.40
2145.00,96.39
2144.00,96.38
2143.00,96.38
2142.00,96.38
2141.00,96.39
2140.00,96.39
2139.00,96.40
2138.00,96.41
2137.00,96.41
2136.00,96.40
2135.00,96.39
2134.00,96.39
2133.00,96.38
2132.00,96.38
2131.00,96.38
2130.00,96.39
2129.00,96.39
2128.00,96.39
2127.00,96.39
2126.00,96.39
2125.00,96.39
2124.00,96.39
2123.00,96.39
2122.00,96.40
2121.00,96.39
2120.00,96.39
2119.00,96.39
2118.00,96.40
2117.00,96.40
2116.00,96.40
2115.00,96.39
2114.00,96.39
2113.00,96.39
2112.00,96.40
2111.00,96.40
2110.00,96.41
2109.00,96.41
2108.00,96.41
2107.00,96.40
2106.00,96.41
2105.00,96.41
2104.00,96.41
2103.00,96.41
2102.00,96.42
2101.00,96.42
2100.00,96.42
2099.00,96.42
2098.00,96.43
2097.00,96.44
2096.00,96.43
2095.00,96.44
2094.00,96.44
2093.00,96.46
2092.00,96.47
2091.00,96.48
2090.00,96.49
2089.00,96.49
2088.00,96.49
2087.00,96.49
2086.00,96.50
2085.00,96.51
2084.00,96.52
2083.00,96.52
2082.00,96.52
2081.00,96.52
2080.00,96.52
2079.00,96.53
2078.00,96.54
2077.00,96.55
2076.00,96.55
2075.00,96.55
2074.00,96.56
2073.00,96.56
2072.00,96.57
2071.00,96.57
2070.00,96.58
2069.00,96.58
2068.00,96.58
2067.00,96.59
2066.00,96.60
2065.00,96.62
2064.00,96.62
2063.00,96.63
2062.00,96.64
2061.00,96.65
2060.00,96.66
2059.00,96.67
2058.00,96.69
2057.00,96.70
2056.00,96.71
2055.00,96.72
2054.00,96.73
2053.00,96.74
2052.00,96.73
2051.00,96.74
2050.00,96.75
2049.00,96.77
2048.00,96.78
2047.00,96.79
2046.00,96.80
2045.00,96.81
2044.00,96.80
2043.00,96.80
2042.00,96.81
2041.00,96.82
2040.00,96.83
2039.00,96.83
2038.00,96.85
2037.00,96.86
2036.00,96.87
2035.00,96.89
2034.00,96.91
2033.00,96.93
2032.00,96.93
2031.00,96.93
2030.00,96.94
2029.00,96.95
2028.00,96.95
2027.00,96.96
2026.00,96.98
2025.00,97.01
2024.00,97.02
2023.00,97.02
2022.00,97.03
2021.00,97.03
2020.00,97.02
2019.00,97.03
2018.00,97.06
2017.00,97.08
2016.00,97.10
2015.00,97.11
2014.00,97.12
2013.00,97.13
2012.00,97.12
2011.00,97.12
2010.00,97.14
2009.00,97.15
2008.00,97.16
2007.00,97.17
2006.00,97.18
2005.00,97.19
2004.00,97.19
2003.00,97.19
2002.00,97.21
2001.00,97.21
2000.00,97.22
1999.00,97.23
1998.00,97.25
1997.00,97.27
1996.00,97.27
1995.00,97.26
1994.00,97.26
1993.00,97.26
1992.00,97.27
1991.00,97.29
1990.00,97.30
1989.00,97.31
1988.00,97.30
1987.00,97.30
1986.00,97.32
1985.00,97.34
1984.00,97.35
1983.00,97.36
1982.00,97.38
1981.00,97.39
1980.00,97.39
1979.00,97.40
1978.00,97.43
1977.00,97.45
1976.00,97.46
1975.00,97.47
1974.00,97.48
1973.00,97.47
1972.00,97.46
1971.00,97.46
1970.00,97.48
1969.00,97.49
1968.00,97.49
1967.00,97.50
1966.00,97.53
1965.00,97.54
1964.00,97.54
1963.00,97.54
1962.00,97.55
1961.00,97.55
1960.00,97.55
1959.00,97.55
1958.00,97.57
1957.00,97.57
1956.00,97.56
1955.00,97.57
1954.00,97.58
1953.00,97.59
1952.00,97.59
1951.00,97.59
1950.00,97.60
1949.00,97.61
1948.00,97.61
1947.00,97.61
1946.00,97.63
1945.00,97.63
1944.00,97.63
1943.00,97.63
1942.00,97.65
1941.00,97.66
1940.00,97.66
1939.00,97.66
1938.00,97.68
1937.00,97.68
1936.00,97.68
1935.00,97.68
1934.00,97.69
1933.00,97.69
1932.00,97.69
1931.00,97.69
1930.00,97.70
1929.00,97.70
1928.00,97.70
1927.00,97.70
1926.00,97.71
1925.00,97.71
1924.00,97.70
1923.00,97.70
1922.00,97.72
1921.00,97.73
1920.00,97.74
1919.00,97.75
1918.00,97.76
1917.00,97.77
1916.00,97.77
1915.00,97.76
1914.00,97.77
1913.00,97.77
1912.00,97.76
1911.00,97.75
1910.00,97.75
1909.00,97.75
1908.00,97.75
1907.00,97.76
1906.00,97.77
1905.00,97.77
1904.00,97.77
1903.00,97.77
1902.00,97.78
1901.00,97.78
1900.00,97.77
1899.00,97.77
1898.00,97.78
1897.00,97.78
1896.00,97.78
1895.00,97.78
1894.00,97.79
1893.00,97.79
1892.00,97.79
1891.00,97.79
1890.00,97.79
1889.00,97.80
1888.00,97.80
1887.00,97.79
1886.00,97.79
1885.00,97.79
1884.00,97.79
1883.00,97.79
1882.00,97.80
1881.00,97.80
1880.00,97.79
1879.00,97.79
1878.00,97.80
1877.00,97.80
1876.00,97.79
1875.00,97.79
1874.00,97.79
1873.00,97.79
1872.00,97.78
1871.00,97.77
1870.00,97.77
1869.00,97.77
1868.00,97.77
1867.00,97.78
1866.00,97.79
1865.00,97.79
1864.00,97.78
1863.00,97.77
1862.00,97.77
1861.00,97.77
1860.00,97.76
1859.00,97.76
1858.00,97.76
1857.00,97.76
1856.00,97.76
1855.00,97.76
1854.00,97.76
1853.00,97.76
1852.00,97.75
1851.00,97.73
1850.00,97.73
1849.00,97.72
1848.00,97.72
1847.00,97.73
1846.00,97.74
1845.00,97.74
1844.00,97.73
1843.00,97.72
1842.00,97.72
1841.00,97.71
1840.00,97.70
1839.00,97.69
1838.00,97.69
1837.00,97.69
1836.00,97.68
1835.00,97.68
1834.00,97.68
1833.00,97.68
1832.00,97.68
1831.00,97.68
1830.00,97.69
1829.00,97.69
1828.00,97.68
1827.00,97.67
1826.00,97.67
1825.00,97.66
1824.00,97.65
1823.00,97.63
1822.00,97.62
1821.00,97.61
1820.00,97.59
1819.00,97.59
1818.00,97.58
1817.00,97.58
1816.00,97.57
1815.00,97.56
1814.00,97.55
1813.00,97.54
1812.00,97.53
1811.00,97.52
1810.00,97.52
1809.00,97.51
1808.00,97.50
1807.00,97.48
1806.00,97.47
1805.00,97.46
1804.00,97.45
1803.00,97.44
1802.00,97.44
1801.00,97.44
1800.00,97.43
1799.00,97.41
1798.00,97.39
1797.00,97.36
1796.00,97.34
1795.00,97.33
1794.00,97.33
1793.00,97.32
1792.00,97.30
1791.00,97.30
1790.00,97.29
1789.00,97.28
1788.00,97.26
1787.00,97.24
1786.00,97.22
1785.00,97.21
1784.00,97.18
1783.00,97.16
1782.00,97.14
1781.00,97.12
1780.00,97.10
1779.00,97.08
1778.00,97.06
1777.00,97.04
1776.00,97.02
1775.00,97.00
1774.00,96.97
1773.00,96.94
1772.00,96.91
1771.00,96.89
1770.00,96.90
1769.00,96.88
1768.00,96.84
1767.00,96.80
1766.00,96.77
1765.00,96.75
1764.00,96.72
1763.00,96.70
1762.00,96.67
1761.00,96.63
1760.00,96.59
1759.00,96.56
1758.00,96.53
1757.00,96.49
1756.00,96.45
1755.00,96.40
1754.00,96.36
1753.00,96.31
1752.00,96.24
1751.00,96.16
1750.00,96.12
1749.00,96.08
1748.00,96.04
1747.00,95.99
1746.00,95.95
1745.00,95.90
1744.00,95.84
1743.00,95.81
1742.00,95.78
1741.00,95.74
1740.00,95.66
1739.00,95.58
1738.00,95.52
1737.00,95.48
1736.00,95.41
1735.00,95.29
1734.00,95.15
1733.00,95.04
1732.00,94.96
1731.00,94.93
1730.00,94.90
1729.00,94.85
1728.00,94.76
1727.00,94.67
1726.00,94.58
1725.00,94.48
1724.00,94.37
1723.00,94.26
1722.00,94.18
1721.00,94.11
1720.00,94.03
1719.00,93.89
1718.00,93.70
1717.00,93.50
1716.00,93.34
1715.00,93.23
1714.00,93.14
1713.00,93.03
1712.00,92.89
1711.00,92.75
1710.00,92.61
1709.00,92.48
1708.00,92.34
1707.00,92.18
1706.00,92.00
1705.00,91.81
1704.00,91.65
1703.00,91.53
1702.00,91.40
1701.00,91.17
1700.00,90.82
1699.00,90.49
1698.00,90.27
1697.00,90.05
1696.00,89.76
1695.00,89.45
1694.00,89.21
1693.00,89.04
1692.00,88.86
1691.00,88.62
1690.00,88.34
1689.00,88.07
1688.00,87.83
1687.00,87.62
1686.00,87.39
1685.00,87.04
1684.00,86.60
1683.00,86.22
1682.00,85.97
1681.00,85.74
1680.00,85.48
1679.00,85.22
1678.00,84.99
1677.00,84.74
1676.00,84.41
1675.00,84.01
1674.00,83.65
1673.00,83.36
1672.00,83.10
1671.00,82.78
1670.00,82.41
1669.00,82.00
1668.00,81.63
1667.00,81.33
1666.00,81.09
1665.00,80.86
1664.00,80.56
1663.00,80.21
1662.00,79.87
1661.00,79.59
1660.00,79.34
1659.00,79.10
1658.00,78.90
1657.00,78.74
1656.00,78.59
1655.00,78.41
1654.00,78.10
1653.00,77.71
1652.00,77.40
1651.00,77.25
1650.00,77.23
1649.00,77.21
1648.00,77.07
1647.00,76.85
1646.00,76.68
1645.00,76.57
1644.00,76.49
1643.00,76.42
1642.00,76.37
1641.00,76.32
1640.00,76.29
1639.00,76.26
1638.00,76.25
1637.00,76.25
1636.00,76.26
1635.00,76.30
1634.00,76.38
1633.00,76.47
1632.00,76.56
1631.00,76.66
1630.00,76.78
1629.00,76.96
1628.00,77.17
1627.00,77.40
1626.00,77.62
1625.00,77.87
1624.00,78.14
1623.00,78.45
1622.00,78.79
1621.00,79.09
1620.00,79.35
1619.00,79.59
1618.00,79.86
1617.00,80.22
1616.00,80.65
1615.00,81.04
1614.00,81.38
1613.00,81.70
1612.00,82.00
1611.00,82.30
1610.00,82.62
1609.00,82.95
1608.00,83.28
1607.00,83.59
1606.00,83.89
1605.00,84.17
1604.00,84.45
1603.00,84.72
1602.00,84.99
1601.00,85.25
1600.00,85.50
1599.00,85.73
1598.00,85.94
1597.00,86.15
1596.00,86.36
1595.00,86.56
1594.00,86.75
1593.00,86.94
1592.00,87.11
1591.00,87.27
1590.00,87.42
1589.00,87.56
1588.00,87.70
1587.00,87.82
1586.00,87.94
1585.00,88.04
1584.00,88.14
1583.00,88.23
1582.00,88.31
1581.00,88.39
1580.00,88.46
1579.00,88.51
1578.00,88.53
1577.00,88.53
1576.00,88.55
1575.00,88.59
1574.00,88.65
1573.00,88.71
1572.00,88.75
1571.00,88.76
1570.00,88.76
1569.00,88.76
1568.00,88.76
1567.00,88.75
1566.00,88.73
1565.00,88.72
1564.00,88.73
1563.00,88.74
1562.00,88.76
1561.00,88.78
1560.00,88.79
1559.00,88.83
1558.00,88.92
1557.00,88.95
1556.00,88.97
1555.00,89.00
1554.00,89.04
1553.00,89.10
1552.00,89.17
1551.00,89.26
1550.00,89.35
1549.00,89.45
1548.00,89.54
1547.00,89.62
1546.00,89.68
1545.00,89.75
1544.00,89.85
1543.00,89.95
1542.00,90.03
1541.00,90.11
1540.00,90.25
1539.00,90.38
1538.00,90.46
1537.00,90.53
1536.00,90.62
1535.00,90.71
1534.00,90.79
1533.00,90.90
1532.00,91.00
1531.00,91.06
1530.00,91.11
1529.00,91.16
1528.00,91.23
1527.00,91.30
1526.00,91.37
1525.00,91.45
1524.00,91.51
1523.00,91.56
1522.00,91.61
1521.00,91.69
1520.00,91.78
1519.00,91.86
1518.00,91.93
1517.00,92.00
1516.00,92.07
1515.00,92.14
1514.00,92.18
1513.00,92.21
1512.00,92.24
1511.00,92.28
1510.00,92.32
1509.00,92.35
1508.00,92.37
1507.00,92.46
1506.00,92.59
1505.00,92.62
1504.00,92.61
1503.00,92.63
1502.00,92.67
1501.00,92.71
1500.00,92.76
1499.00,92.80
1498.00,92.83
1497.00,92.84
1496.00,92.85
1495.00,92.87
1494.00,92.90
1493.00,92.93
1492.00,92.95
1491.00,92.96
1490.00,92.97
1489.00,92.99
1488.00,93.02
1487.00,93.03
1486.00,93.02
1485.00,93.01
1484.00,92.99
1483.00,92.97
1482.00,92.96
1481.00,92.95
1480.00,92.94
1479.00,92.94
1478.00,92.93
1477.00,92.91
1476.00,92.89
1475.00,92.86
1474.00,92.81
1473.00,92.76
1472.00,92.73
1471.00,92.71
1470.00,92.69
1469.00,92.66
1468.00,92.64
1467.00,92.62
1466.00,92.61
1465.00,92.58
1464.00,92.56
1463.00,92.54
1462.00,92.52
1461.00,92.51
1460.00,92.51
1459.00,92.50
1458.00,92.48
1457.00,92.47
1456.00,92.48
1455.00,92.50
1454.00,92.53
1453.00,92.58
1452.00,92.62
1451.00,92.66
1450.00,92.70
1449.00,92.75
1448.00,92.80
1447.00,92.84
1446.00,92.87
1445.00,92.89
1444.00,92.90
1443.00,92.92
1442.00,92.94
1441.00,92.96
1440.00,92.99
1439.00,93.03
1438.00,93.07
1437.00,93.10
1436.00,93.12
1435.00,93.13
1434.00,93.13
1433.00,93.14
1432.00,93.15
1431.00,93.17
1430.00,93.18
1429.00,93.19
1428.00,93.19
1427.00,93.18
1426.00,93.18
1425.00,93.17
1424.00,93.16
1423.00,93.17
1422.00,93.18
1421.00,93.18
1420.00,93.17
1419.00,93.15
1418.00,93.14
1417.00,93.14
1416.00,93.13
1415.00,93.12
1414.00,93.11
1413.00,93.08
1412.00,93.06
1411.00,93.05
1410.00,93.05
1409.00,93.05
1408.00,93.05
1407.00,93.05
1406.00,93.06
1405.00,93.07
1404.00,93.08
1403.00,93.09
1402.00,93.10
1401.00,93.11
1400.00,93.11
1399.00,93.12
1398.00,93.14
1397.00,93.15
1396.00,93.16
1395.00,93.18
1394.00,93.20
1393.00,93.20
1392.00,93.20
1391.00,93.20
1390.00,93.20
1389.00,93.21
1388.00,93.21
1387.00,93.22
1386.00,93.24
1385.00,93.26
1384.00,93.27
1383.00,93.28
1382.00,93.28
1381.00,93.28
1380.00,93.28
1379.00,93.29
1378.00,93.30
1377.00,93.31
1376.00,93.32
1375.00,93.34
1374.00,93.36
1373.00,93.38
1372.00,93.40
1371.00,93.40
1370.00,93.40
1369.00,93.41
1368.00,93.42
1367.00,93.44
1366.00,93.45
1365.00,93.45
1364.00,93.46
1363.00,93.46
1362.00,93.47
1361.00,93.48
1360.00,93.48
1359.00,93.47
1358.00,93.45
1357.00,93.44
1356.00,93.42
1355.00,93.41
1354.00,93.40
1353.00,93.39
1352.00,93.37
1351.00,93.35
1350.00,93.33
1349.00,93.31
1348.00,93.30
1347.00,93.27
1346.00,93.25
1345.00,93.23
1344.00,93.20
1343.00,93.18
1342.00,93.15
1341.00,93.12
1340.00,93.10
1339.00,93.09
1338.00,93.11
1337.00,93.13
1336.00,93.15
1335.00,93.17
1334.00,93.19
1333.00,93.21
1332.00,93.24
1331.00,93.26
1330.00,93.27
1329.00,93.29
1328.00,93.30
1327.00,93.30
1326.00,93.31
1325.00,93.31
1324.00,93.31
1323.00,93.31
1322.00,93.30
1321.00,93.29
1320.00,93.29
1319.00,93.29
1318.00,93.29
1317.00,93.30
1316.00,93.30
1315.00,93.31
1314.00,93.31
1313.00,93.32
1312.00,93.33
1311.00,93.34
1310.00,93.35
1309.00,93.35
1308.00,93.35
1307.00,93.36
1306.00,93.36
1305.00,93.36
1304.00,93.36
1303.00,93.36
1302.00,93.36
1301.00,93.36
1300.00,93.36
1299.00,93.35
1298.00,93.34
1297.00,93.33
1296.00,93.32
1295.00,93.30
1294.00,93.29
1293.00,93.27
1292.00,93.25
1291.00,93.23
1290.00,93.21
1289.00,93.18
1288.00,93.17
1287.00,93.15
1286.00,93.15
1285.00,93.14
1284.00,93.14
1283.00,93.14
1282.00,93.14
1281.00,93.14
1280.00,93.15
1279.00,93.15
1278.00,93.15
1277.00,93.16
1276.00,93.16
1275.00,93.16
1274.00,93.15
1273.00,93.15
1272.00,93.14
1271.00,93.14
1270.00,93.13
1269.00,93.12
1268.00,93.12
1267.00,93.11
1266.00,93.10
1265.00,93.09
1264.00,93.08
1263.00,93.06
1262.00,93.05
1261.00,93.03
1260.00,93.01
1259.00,93.00
1258.00,92.98
1257.00,92.97
1256.00,92.95
1255.00,92.94
1254.00,92.92
1253.00,92.91
1252.00,92.89
1251.00,92.88
1250.00,92.87
1249.00,92.85
1248.00,92.84
1247.00,92.83
1246.00,92.82
1245.00,92.82
1244.00,92.82
1243.00,92.82
1242.00,92.83
1241.00,92.84
1240.00,92.86
1239.00,92.89
1238.00,92.92
1237.00,92.95
1236.00,92.98
1235.00,93.02
1234.00,93.05
1233.00,93.09
1232.00,93.13
1231.00,93.17
1230.00,93.21
1229.00,93.25
1228.00,93.29
1227.00,93.32
1226.00,93.35
1225.00,93.38
1224.00,93.41
1223.00,93.43
1222.00,93.45
1221.00,93.46
1220.00,93.47
1219.00,93.48
1218.00,93.49
1217.00,93.49
1216.00,93.48
1215.00,93.47
1214.00,93.46
1213.00,93.45
1212.00,93.43
1211.00,93.41
1210.00,93.40
1209.00,93.38
1208.00,93.37
1207.00,93.35
1206.00,93.34
1205.00,93.33
1204.00,93.33
1203.00,93.33
1202.00,93.34
1201.00,93.35
1200.00,93.38
1199.00,93.40
1198.00,93.42
1197.00,93.44
1196.00,93.46
1195.00,93.48
1194.00,93.49
1193.00,93.50
1192.00,93.51
1191.00,93.53
1190.00,93.54
1189.00,93.55
1188.00,93.56
1187.00,93.57
1186.00,93.57
1185.00,93.58
1184.00,93.58
1183.00,93.59
1182.00,93.59
1181.00,93.59
1180.00,93.59
1179.00,93.59
1178.00,93.59
1177.00,93.58
1176.00,93.58
1175.00,93.58
1174.00,93.58
1173.00,93.58
1172.00,93.58
1171.00,93.58
1170.00,93.58
1169.00,93.58
1168.00,93.57
1167.00,93.57
1166.00,93.57
1165.00,93.56
1164.00,93.56
1163.00,93.56
1162.00,93.57
1161.00,93.57
1160.00,93.58
1159.00,93.58
1158.00,93.59
1157.00,93.60
1156.00,93.61
1155.00,93.61
1154.00,93.62
1153.00,93.63
1152.00,93.63
1151.00,93.63
1150.00,93.63
1149.00,93.63
1148.00,93.64
1147.00,93.64
1146.00,93.64
1145.00,93.64
1144.00,93.63
1143.00,93.63
1142.00,93.62
1141.00,93.62
1140.00,93.61
1139.00,93.61
1138.00,93.61
1137.00,93.60
1136.00,93.59
1135.00,93.59
1134.00,93.58
1133.00,93.57
1132.00,93.57
1131.00,93.56
1130.00,93.55
1129.00,93.54
1128.00,93.53
1127.00,93.52
1126.00,93.51
1125.00,93.50
1124.00,93.50
1123.00,93.49
1122.00,93.48
1121.00,93.48
1120.00,93.47
1119.00,93.47
1118.00,93.46
1117.00,93.45
1116.00,93.44
1115.00,93.43
1114.00,93.42
1113.00,93.41
1112.00,93.41
1111.00,93.40
1110.00,93.39
1109.00,93.38
1108.00,93.38
1107.00,93.37
1106.00,93.36
1105.00,93.35
1104.00,93.34
1103.00,93.33
1102.00,93.32
1101.00,93.31
1100.00,93.31
1099.00,93.30
1098.00,93.30
1097.00,93.29
1096.00,93.28
1095.00,93.28
1094.00,93.27
1093.00,93.27
1092.00,93.26
1091.00,93.25
1090.00,93.24
1089.00,93.22
1088.00,93.20
1087.00,93.18
1086.00,93.16
1085.00,93.13
1084.00,93.11
1083.00,93.10
1082.00,93.09
1081.00,93.09
1080.00,93.10
1079.00,93.11
1078.00,93.13
1077.00,93.14
1076.00,93.16
1075.00,93.17
1074.00,93.18
1073.00,93.19
1072.00,93.20
1071.00,93.20
1070.00,93.20
1069.00,93.20
1068.00,93.19
1067.00,93.19
1066.00,93.18
1065.00,93.18
1064.00,93.17
1063.00,93.17
1062.00,93.16
1061.00,93.16
1060.00,93.16
1059.00,93.15
1058.00,93.15
1057.00,93.15
1056.00,93.14
1055.00,93.14
1054.00,93.13
1053.00,93.12
1052.00,93.12
1051.00,93.11
1050.00,93.10
1049.00,93.09
1048.00,93.09
1047.00,93.08
1046.00,93.07
1045.00,93.06
1044.00,93.05
1043.00,93.04
1042.00,93.02
1041.00,93.00
1040.00,92.98
1039.00,92.96
1038.00,92.94
1037.00,92.91
1036.00,92.89
1035.00,92.86
1034.00,92.84
1033.00,92.83
1032.00,92.82
1031.00,92.81
1030.00,92.80
1029.00,92.80
1028.00,92.79
1027.00,92.79
1026.00,92.78
1025.00,92.77
1024.00,92.77
1023.00,92.76
1022.00,92.75
1021.00,92.74
1020.00,92.73
1019.00,92.71
1018.00,92.70
1017.00,92.68
1016.00,92.66
1015.00,92.64
1014.00,92.63
1013.00,92.61
1012.00,92.60
1011.00,92.59
1010.00,92.57
1009.00,92.56
1008.00,92.54
1007.00,92.52
1006.00,92.51
1005.00,92.49
1004.00,92.48
1003.00,92.46
1002.00,92.44
1001.00,92.42
1000.00,92.40
999.00,92.37
998.00,92.35
997.00,92.33
996.00,92.31
995.00,92.29
994.00,92.26
993.00,92.24
992.00,92.21
991.00,92.18
990.00,92.16
989.00,92.13
988.00,92.10
987.00,92.07
986.00,92.04
985.00,92.00
984.00,91.97
983.00,91.94
982.00,91.90
981.00,91.87
980.00,91.83
979.00,91.79
978.00,91.75
977.00,91.71
976.00,91.67
975.00,91.64
974.00,91.60
973.00,91.57
972.00,91.53
971.00,91.49
970.00,91.46
969.00,91.42
968.00,91.39
967.00,91.35
966.00,91.30
965.00,91.26
964.00,91.22
963.00,91.18
962.00,91.14
961.00,91.09
960.00,91.05
959.00,91.00
958.00,90.95
957.00,90.90
956.00,90.85
955.00,90.80
954.00,90.75
953.00,90.69
952.00,90.63
951.00,90.57
950.00,90.52
949.00,90.46
948.00,90.39
947.00,90.33
946.00,90.27
945.00,90.21
944.00,90.14
943.00,90.08
942.00,90.01
941.00,89.94
940.00,89.87
939.00,89.80
938.00,89.73
937.00,89.66
936.00,89.59
935.00,89.53
934.00,89.45
933.00,89.38
932.00,89.30
931.00,89.22
930.00,89.14
929.00,89.06
928.00,88.98
927.00,88.90
926.00,88.82
925.00,88.74
924.00,88.65
923.00,88.56
922.00,88.48
921.00,88.39
920.00,88.30
919.00,88.21
918.00,88.12
917.00,88.03
916.00,87.93
915.00,87.84
914.00,87.75
913.00,87.65
912.00,87.56
911.00,87.46
910.00,87.36
909.00,87.26
908.00,87.15
907.00,87.05
906.00,86.95
905.00,86.84
904.00,86.73
903.00,86.62
902.00,86.52
901.00,86.40
900.00,86.29
899.00,86.18
898.00,86.06
897.00,85.95
896.00,85.83
895.00,85.72
894.00,85.60
893.00,85.48
892.00,85.36
891.00,85.23
890.00,85.11
889.00,84.98
888.00,84.85
887.00,84.73
886.00,84.60
885.00,84.48
884.00,84.35
883.00,84.22
882.00,84.08
881.00,83.95
880.00,83.81
879.00,83.67
878.00,83.53
877.00,83.40
876.00,83.26
875.00,83.13
874.00,82.99
873.00,82.85
872.00,82.72
871.00,82.58
870.00,82.44
869.00,82.30
868.00,82.16
867.00,82.02
866.00,81.88
865.00,81.74
864.00,81.59
863.00,81.45
862.00,81.31
861.00,81.16
860.00,81.01
859.00,80.87
858.00,80.72
857.00,80.57
856.00,80.42
855.00,80.27
854.00,80.13
853.00,79.98
852.00,79.83
851.00,79.68
850.00,79.53
849.00,79.38
848.00,79.23
847.00,79.08
846.00,78.93
845.00,78.78
844.00,78.63
843.00,78.48
842.00,78.33
841.00,78.18
840.00,78.02
839.00,77.87
838.00,77.72
837.00,77.57
836.00,77.41
835.00,77.26
834.00,77.11
833.00,76.96
832.00,76.81
831.00,76.66
830.00,76.51
829.00,76.35
828.00,76.19
827.00,76.04
826.00,75.89
825.00,75.73
824.00,75.57
823.00,75.40
822.00,75.24
821.00,75.07
820.00,74.90
819.00,74.74
818.00,74.58
817.00,74.42
816.00,74.25
815.00,74.09
814.00,73.93
813.00,73.77
812.00,73.60
811.00,73.44
810.00,73.29
809.00,73.13
808.00,72.97
807.00,72.82
806.00,72.66
805.00,72.51
804.00,72.35
803.00,72.19
802.00,72.04
801.00,71.88
800.00,71.72
799.00,71.56
798.00,71.40
797.00,71.24
796.00,71.09
795.00,70.93
794.00,70.77
793.00,70.62
792.00,70.46
791.00,70.30
790.00,70.14
789.00,69.98
788.00,69.82
787.00,69.67
786.00,69.52
785.00,69.37
784.00,69.21
783.00,69.05
782.00,68.89
781.00,68.73
780.00,68.57
779.00,68.41
778.00,68.26
777.00,68.11
776.00,67.95
775.00,67.78
774.00,67.63
773.00,67.47
772.00,67.31
771.00,67.15
770.00,67.00
769.00,66.85
768.00,66.69
767.00,66.54
766.00,66.39
765.00,66.23
764.00,66.08
763.00,65.92
762.00,65.77
761.00,65.62
760.00,65.45
759.00,65.30
758.00,65.14
757.00,64.99
756.00,64.83
755.00,64.68
754.00,64.53
753.00,64.37
752.00,64.22
751.00,64.06
750.00,63.91
749.00,63.77
748.00,63.61
747.00,63.46
746.00,63.31
745.00,63.16
744.00,63.01
743.00,62.86
742.00,62.71
741.00,62.57
740.00,62.41
739.00,62.26
738.00,62.11
737.00,61.96
736.00,61.81
735.00,61.66
734.00,61.51
733.00,61.37
732.00,61.22
731.00,61.07
730.00,60.92
729.00,60.78
728.00,60.62
727.00,60.47
726.00,60.33
725.00,60.18
724.00,60.03
723.00,59.89
722.00,59.75
721.00,59.60
720.00,59.45
719.00,59.30
718.00,59.17
717.00,59.04
716.00,58.89
715.00,58.74
714.00,58.60
713.00,58.45
712.00,58.30
711.00,58.16
710.00,58.03
709.00,57.90
708.00,57.76
707.00,57.61
706.00,57.47
705.00,57.33
704.00,57.18
703.00,57.04
702.00,56.91
701.00,56.77
700.00,56.63
699.00,56.49
698.00,56.37
697.00,56.24
696.00,56.10
695.00,55.97
694.00,55.84
693.00,55.71
692.00,55.57
691.00,55.43
690.00,55.30
689.00,55.17
688.00,55.03
687.00,54.90
686.00,54.78
685.00,54.66
684.00,54.52
683.00,54.40
682.00,54.28
681.00,54.17
680.00,54.04
679.00,53.91
678.00,53.79
677.00,53.67
676.00,53.54
675.00,53.41
674.00,53.29
673.00,53.17
672.00,53.05
671.00,52.95
670.00,52.85
669.00,52.71
668.00,52.50
667.00,52.33
666.00,52.25
665.00,52.18
664.00,52.09
663.00,51.98
662.00,51.87
661.00,51.75
660.00,51.64
659.00,51.53
658.00,51.42
657.00,51.32
656.00,51.20
655.00,51.08
654.00,50.98
653.00,50.87
652.00,50.75
651.00,50.64
650.00,50.56
649.00,50.47
648.00,50.37
647.00,50.26
646.00,50.17
645.00,50.07
644.00,49.97
643.00,49.86
642.00,49.77
641.00,49.66
640.00,49.54
639.00,49.44
638.00,49.37
637.00,49.29
636.00,49.19
635.00,49.09
634.00,49.01
633.00,48.92
632.00,48.81
631.00,48.71
630.00,48.62
629.00,48.54
628.00,48.45
627.00,48.37
626.00,48.32
625.00,48.26
624.00,48.17
623.00,48.08
622.00,48.01
621.00,47.93
620.00,47.82
619.00,47.73
618.00,47.66
617.00,47.58
616.00,47.47
615.00,47.38
614.00,47.34
613.00,47.30
612.00,47.22
611.00,47.13
610.00,47.08
609.00,47.03
608.00,46.94
607.00,46.87
606.00,46.85
605.00,46.83
604.00,46.76
603.00,46.67
602.00,46.57
601.00,46.47
600.00,46.40
599.00,46.41
598.00,46.50
597.00,46.55
596.00,46.52
595.00,46.47
594.00,46.47
593.00,46.47
592.00,46.44
591.00,46.39
590.00,46.39
589.00,46.37
588.00,46.33
587.00,46.30
586.00,46.32
585.00,46.31
584.00,46.23
583.00,46.17
582.00,46.20
581.00,46.20
580.00,46.12
579.00,46.06
578.00,46.10
577.00,46.12
576.00,46.04
575.00,45.96
574.00,45.96
573.00,45.93
572.00,45.84
571.00,45.78
570.00,45.83
569.00,45.90
568.00,45.88
567.00,45.88
566.00,45.92
565.00,45.88
564.00,45.74
563.00,45.65
562.00,45.70
561.00,45.76
560.00,45.71
559.00,45.67
558.00,45.71
557.00,45.72
556.00,45.64
555.00,45.59
554.00,45.67
553.00,45.73
552.00,45.67
551.00,45.63
550.00,45.73
549.00,45.81
548.00,45.76
547.00,45.71
546.00,45.76
545.00,45.77
544.00,45.67
543.00,45.62
542.00,45.71
541.00,45.73
540.00,45.56
539.00,45.46
538.00,45.59
537.00,45.69
536.00,45.52
535.00,45.28
534.00,45.25
533.00,45.25
532.00,45.09
531.00,44.98
530.00,45.13
529.00,45.27
528.00,45.12
527.00,44.99
526.00,45.18
525.00,45.26
524.00,44.93
523.00,44.71
522.00,45.04
521.00,45.26
520.00,44.74
519.00,44.04
518.00,44.12
517.00,44.34
516.00,44.00
515.00,44.26
514.00,45.17
513.00,44.93
512.00,42.50
511.00,40.88
510.00,44.11
509.00,47.10
508.00,46.27
507.00,41.24
506.00,49.47
505.00,44.05
504.00,70.64
503.00,102.97
502.00,82.63
501.00,46.63
500.00,155.85
499.00,986.01
498.00,95.01
497.00,40.05
496.00,130.91
495.00,106.94
494.00,72.92
493.00,45.43
492.00,64.75
491.00,67.18
490.00,55.78
489.00,121.18
488.00,48.95
487.00,29.58
486.00,158.34
485.00,92.05
484.00,52.86
483.00,32.38
482.00,130.03
481.00,123.35
480.00,83.22
479.00,23.61
478.00,60.05
477.00,169.29
476.00,74.99
475.00,25.74
474.00,102.46
473.00,104.55
472.00,40.54
471.00,-1.42
470.00,50.35
469.00,69.24
468.00,75.93
467.00,113.34
466.00,95.41
465.00,73.57
464.00,70.87
463.00,86.53
462.00,103.61
461.00,75.43
460.00,78.27
459.00,48.81
458.00,10.04
457.00,49.83
456.00,69.86
455.00,148.54
454.00,138.82
453.00,71.21
452.00,148.00
451.00,244.84
450.00,167.45
449.00,81.25
448.00,180.59
447.00,164.44
446.00,86.82
445.00,27.54
444.00,56.06
443.00,45.54
442.00,150.31
441.00,133.69
440.00,94.05
439.00,115.57
438.00,69.75
437.00,71.11
436.00,31.92
435.00,52.88
434.00,120.28
433.00,97.33
432.00,169.36
431.00,120.49
430.00,310.91
429.00,86.50
428.00,161.60
427.00,222.05
426.00,169.17
425.00,38.12
424.00,64.83
423.00,122.20
422.00,86.76
421.00,102.81
420.00,113.77
419.00,72.05
418.00,119.00
417.00,75.13
416.00,154.35
415.00,225.82
414.00,91.19
413.00,103.68
412.00,192.03
411.00,104.46
410.00,418.16
409.00,166.64
408.00,210.50
407.00,16.29
406.00,70.12
405.00,98.38
404.00,81.70
403.00,95.70
402.00,127.82
401.00,69.60
400.00,91.95
