Created as New Dataset,Sample 001 By FTIR User 2.0 Date Friday, March 01 2024
cm-1,%T
4000.00,98.77
3999.00,98.77
3998.00,98.77
3997.00,98.77
3996.00,98.76
3995.00,98.77
3994.00,98.77
3993.00,98.77
3992.00,98.77
3991.00,98.77
3990.00,98.77
3989.00,98.77
3988.00,98.77
3987.00,98.76
3986.00,98.76
3985.00,98.76
3984.00,98.76
3983.00,98.76
3982.00,98.77
3981.00,98.77
3980.00,98.76
3979.00,98.76
3978.00,98.75
3977.00,98.75
3976.00,98.75
3975.00,98.76
3974.00,98.76
3973.00,98.76
3972.00,98.76
3971.00,98.77
3970.00,98.77
3969.00,98.77
3968.00,98.78
3967.00,98.78
3966.00,98.77
3965.00,98.77
3964.00,98.76
3963.00,98.76
3962.00,98.77
3961.00,98.77
3960.00,98.77
3959.00,98.77
3958.00,98.77
3957.00,98.77
3956.00,98.77
3955.00,98.78
3954.00,98.78
3953.00,98.77
3952.00,98.77
3951.00,98.77
3950.00,98.77
3949.00,98.78
3948.00,98.78
3947.00,98.78
3946.00,98.77
3945.00,98.77
3944.00,98.77
3943.00,98.78
3942.00,98.79
3941.00,98.80
3940.00,98.79
3939.00,98.79
3938.00,98.78
3937.00,98.78
3936.00,98.77
3935.00,98.77
3934.00,98.76
3933.00,98.77
3932.00,98.77
3931.00,98.78
3930.00,98.79
3929.00,98.78
3928.00,98.77
3927.00,98.76
3926.00,98.76
3925.00,98.77
3924.00,98.78
3923.00,98.79
3922.00,98.79
3921.00,98.79
3920.00,98.78
3919.00,98.78
3918.00,98.79
3917.00,98.80
3916.00,98.81
3915.00,98.81
3914.00,98.81
3913.00,98.80
3912.00,98.80
3911.00,98.80
3910.00,98.80
3909.00,98.79
3908.00,98.79
3907.00,98.78
3906.00,98.78
3905.00,98.78
3904.00,98.79
3903.00,98.79
3902.00,98.79
3901.00,98.79
3900.00,98.79
3899.00,98.80
3898.00,98.80
3897.00,98.80
3896.00,98.79
3895.00,98.78
3894.00,98.78
3893.00,98.78
3892.00,98.79
3891.00,98.81
3890.00,98.81
3889.00,98.80
3888.00,98.79
3887.00,98.78
3886.00,98.77
3885.00,98.78
3884.00,98.78
3883.00,98.78
3882.00,98.79
3881.00,98.80
3880.00,98.81
3879.00,98.82
3878.00,98.81
3877.00,98.79
3876.00,98.78
3875.00,98.77
3874.00,98.78
3873.00,98.78
3872.00,98.78
3871.00,98.78
3870.00,98.79
3869.00,98.79
3868.00,98.79
3867.00,98.77
3866.00,98.76
3865.00,98.76
3864.00,98.77
3863.00,98.78
3862.00,98.79
3861.00,98.79
3860.00,98.78
3859.00,98.77
3858.00,98.77
3857.00,98.77
3856.00,98.77
3855.00,98.76
3854.00,98.75
3853.00,98.75
3852.00,98.76
3851.00,98.76
3850.00,98.76
3849.00,98.76
3848.00,98.76
3847.00,98.76
3846.00,98.76
3845.00,98.77
3844.00,98.77
3843.00,98.77
3842.00,98.77
3841.00,98.77
3840.00,98.76
3839.00,98.77
3838.00,98.77
3837.00,98.78
3836.00,98.77
3835.00,98.77
3834.00,98.76
3833.00,98.76
3832.00,98.77
3831.00,98.77
3830.00,98.77
3829.00,98.76
3828.00,98.76
3827.00,98.76
3826.00,98.77
3825.00,98.77
3824.00,98.76
3823.00,98.75
3822.00,98.74
3821.00,98.74
3820.00,98.75
3819.00,98.75
3818.00,98.74
3817.00,98.74
3816.00,98.75
3815.00,98.76
3814.00,98.76
3813.00,98.76
3812.00,98.76
3811.00,98.76
3810.00,98.75
3809.00,98.75
3808.00,98.75
3807.00,98.75
3806.00,98.74
3805.00,98.74
3804.00,98.73
3803.00,98.72
3802.00,98.72
3801.00,98.72
3800.00,98.72
3799.00,98.72
3798.00,98.71
3797.00,98.72
3796.00,98.73
3795.00,98.74
3794.00,98.74
3793.00,98.74
3792.00,98.74
3791.00,98.74
3790.00,98.74
3789.00,98.74
3788.00,98.74
3787.00,98.73
3786.00,98.73
3785.00,98.73
3784.00,98.73
3783.00,98.73
3782.00,98.72
3781.00,98.71
3780.00,98.71
3779.00,98.71
3778.00,98.71
3777.00,98.70
3776.00,98.69
3775.00,98.69
3774.00,98.68
3773.00,98.68
3772.00,98.68
3771.00,98.68
3770.00,98.68
3769.00,98.68
3768.00,98.67
3767.00,98.66
3766.00,98.66
3765.00,98.66
3764.00,98.66
3763.00,98.65
3762.00,98.64
3761.00,98.63
3760.00,98.63
3759.00,98.63
3758.00,98.63
3757.00,98.63
3756.00,98.62
3755.00,98.61
3754.00,98.58
3753.00,98.56
3752.00,98.54
3751.00,98.53
3750.00,98.53
3749.00,98.52
3748.00,98.50
3747.00,98.50
3746.00,98.50
3745.00,98.50
3744.00,98.50
3743.00,98.49
3742.00,98.48
3741.00,98.47
3740.00,98.47
3739.00,98.47
3738.00,98.46
3737.00,98.45
3736.00,98.46
3735.00,98.48
3734.00,98.50
3733.00,98.50
3732.00,98.47
3731.00,98.43
3730.00,98.41
3729.00,98.39
3728.00,98.38
3727.00,98.37
3726.00,98.38
3725.00,98.38
3724.00,98.38
3723.00,98.38
3722.00,98.36
3721.00,98.35
3720.00,98.33
3719.00,98.32
3718.00,98.30
3717.00,98.29
3716.00,98.27
3715.00,98.25
3714.00,98.23
3713.00,98.20
3712.00,98.18
3711.00,98.16
3710.00,98.14
3709.00,98.12
3708.00,98.09
3707.00,98.06
3706.00,98.04
3705.00,98.02
3704.00,98.00
3703.00,97.97
3702.00,97.95
3701.00,97.93
3700.00,97.89
3699.00,97.85
3698.00,97.81
3697.00,97.78
3696.00,97.74
3695.00,97.70
3694.00,97.66
3693.00,97.61
3692.00,97.56
3691.00,97.51
3690.00,97.46
3689.00,97.40
3688.00,97.33
3687.00,97.26
3686.00,97.19
3685.00,97.14
3684.00,97.08
3683.00,97.03
3682.00,96.97
3681.00,96.91
3680.00,96.85
3679.00,96.79
3678.00,96.73
3677.00,96.64
3676.00,96.52
3675.00,96.42
3674.00,96.33
3673.00,96.24
3672.00,96.15
3671.00,96.05
3670.00,95.94
3669.00,95.84
3668.00,95.75
3667.00,95.67
3666.00,95.58
3665.00,95.49
3664.00,95.40
3663.00,95.30
3662.00,95.20
3661.00,95.10
3660.00,95.00
3659.00,94.91
3658.00,94.80
3657.00,94.68
3656.00,94.56
3655.00,94.45
3654.00,94.36
3653.00,94.27
3652.00,94.17
3651.00,94.04
3650.00,93.89
3649.00,93.75
3648.00,93.63
3647.00,93.52
3646.00,93.42
3645.00,93.32
3644.00,93.23
3643.00,93.13
3642.00,93.04
3641.00,92.94
3640.00,92.85
3639.00,92.74
3638.00,92.64
3637.00,92.54
3636.00,92.44
3635.00,92.34
3634.00,92.24
3633.00,92.16
3632.00,92.08
3631.00,91.98
3630.00,91.86
3629.00,91.71
3628.00,91.57
3627.00,91.45
3626.00,91.35
3625.00,91.27
3624.00,91.18
3623.00,91.10
3622.00,91.01
3621.00,90.92
3620.00,90.82
3619.00,90.71
3618.00,90.61
3617.00,90.51
3616.00,90.42
3615.00,90.32
3614.00,90.22
3613.00,90.12
3612.00,90.03
3611.00,89.93
3610.00,89.82
3609.00,89.70
3608.00,89.58
3607.00,89.47
3606.00,89.38
3605.00,89.28
3604.00,89.19
3603.00,89.09
3602.00,88.98
3601.00,88.88
3600.00,88.77
3599.00,88.67
3598.00,88.58
3597.00,88.48
3596.00,88.38
3595.00,88.27
3594.00,88.15
3593.00,88.05
3592.00,87.95
3591.00,87.86
3590.00,87.76
3589.00,87.65
3588.00,87.51
3587.00,87.37
3586.00,87.24
3585.00,87.12
3584.00,87.02
3583.00,86.92
3582.00,86.83
3581.00,86.73
3580.00,86.63
3579.00,86.53
3578.00,86.42
3577.00,86.31
3576.00,86.20
3575.00,86.08
3574.00,85.97
3573.00,85.86
3572.00,85.74
3571.00,85.64
3570.00,85.53
3569.00,85.42
3568.00,85.29
3567.00,85.15
3566.00,85.02
3565.00,84.90
3564.00,84.77
3563.00,84.65
3562.00,84.53
3561.00,84.41
3560.00,84.29
3559.00,84.18
3558.00,84.07
3557.00,83.96
3556.00,83.85
3555.00,83.73
3554.00,83.60
3553.00,83.47
3552.00,83.34
3551.00,83.22
3550.00,83.10
3549.00,82.98
3548.00,82.85
3547.00,82.69
3546.00,82.54
3545.00,82.40
3544.00,82.28
3543.00,82.18
3542.00,82.08
3541.00,81.98
3540.00,81.88
3539.00,81.76
3538.00,81.62
3537.00,81.49
3536.00,81.36
3535.00,81.25
3534.00,81.14
3533.00,81.03
3532.00,80.92
3531.00,80.80
3530.00,80.68
3529.00,80.55
3528.00,80.41
3527.00,80.27
3526.00,80.13
3525.00,79.98
3524.00,79.85
3523.00,79.73
3522.00,79.63
3521.00,79.53
3520.00,79.42
3519.00,79.30
3518.00,79.18
3517.00,79.04
3516.00,78.91
3515.00,78.78
3514.00,78.66
3513.00,78.55
3512.00,78.44
3511.00,78.33
3510.00,78.21
3509.00,78.08
3508.00,77.96
3507.00,77.84
3506.00,77.71
3505.00,77.57
3504.00,77.42
3503.00,77.28
3502.00,77.15
3501.00,77.04
3500.00,76.93
3499.00,76.81
3498.00,76.69
3497.00,76.56
3496.00,76.44
3495.00,76.33
3494.00,76.22
3493.00,76.11
3492.00,76.01
3491.00,75.90
3490.00,75.78
3489.00,75.65
3488.00,75.51
3487.00,75.38
3486.00,75.27
3485.00,75.17
3484.00,75.06
3483.00,74.94
3482.00,74.80
3481.00,74.66
3480.00,74.52
3479.00,74.41
3478.00,74.31
3477.00,74.22
3476.00,74.12
3475.00,74.01
3474.00,73.89
3473.00,73.75
3472.00,73.61
3471.00,73.46
3470.00,73.30
3469.00,73.16
3468.00,73.04
3467.00,72.94
3466.00,72.85
3465.00,72.76
3464.00,72.67
3463.00,72.56
3462.00,72.43
3461.00,72.30
3460.00,72.18
3459.00,72.07
3458.00,71.98
3457.00,71.88
3456.00,71.78
3455.00,71.67
3454.00,71.56
3453.00,71.44
3452.00,71.33
3451.00,71.21
3450.00,71.09
3449.00,70.97
3448.00,70.84
3447.00,70.71
3446.00,70.60
3445.00,70.49
3444.00,70.38
3443.00,70.27
3442.00,70.15
3441.00,70.02
3440.00,69.88
3439.00,69.73
3438.00,69.58
3437.00,69.44
3436.00,69.32
3435.00,69.21
3434.00,69.12
3433.00,69.03
3432.00,68.93
3431.00,68.81
3430.00,68.70
3429.00,68.61
3428.00,68.52
3427.00,68.44
3426.00,68.36
3425.00,68.27
3424.00,68.17
3423.00,68.06
3422.00,67.94
3421.00,67.83
3420.00,67.72
3419.00,67.62
3418.00,67.53
3417.00,67.43
3416.00,67.32
3415.00,67.20
3414.00,67.07
3413.00,66.96
3412.00,66.87
3411.00,66.78
3410.00,66.69
3409.00,66.60
3408.00,66.53
3407.00,66.45
3406.00,66.37
3405.00,66.27
3404.00,66.15
3403.00,66.02
3402.00,65.89
3401.00,65.79
3400.00,65.72
3399.00,65.67
3398.00,65.63
3397.00,65.58
3396.00,65.51
3395.00,65.42
3394.00,65.32
3393.00,65.22
3392.00,65.14
3391.00,65.09
3390.00,65.06
3389.00,65.03
3388.00,65.00
3387.00,64.95
3386.00,64.90
3385.00,64.84
3384.00,64.78
3383.00,64.71
3382.00,64.64
3381.00,64.58
3380.00,64.51
3379.00,64.45
3378.00,64.40
3377.00,64.35
3376.00,64.30
3375.00,64.26
3374.00,64.21
3373.00,64.15
3372.00,64.07
3371.00,63.99
3370.00,63.92
3369.00,63.87
3368.00,63.84
3367.00,63.82
3366.00,63.82
3365.00,63.81
3364.00,63.80
3363.00,63.77
3362.00,63.73
3361.00,63.70
3360.00,63.67
3359.00,63.66
3358.00,63.65
3357.00,63.63
3356.00,63.61
3355.00,63.57
3354.00,63.52
3353.00,63.47
3352.00,63.43
3351.00,63.39
3350.00,63.38
3349.00,63.38
3348.00,63.39
3347.00,63.38
3346.00,63.36
3345.00,63.33
3344.00,63.30
3343.00,63.27
3342.00,63.24
3341.00,63.22
3340.00,63.20
3339.00,63.18
3338.00,63.17
3337.00,63.17
3336.00,63.18
3335.00,63.19
3334.00,63.19
3333.00,63.19
3332.00,63.18
3331.00,63.17
3330.00,63.16
3329.00,63.14
3328.00,63.11
3327.00,63.09
3326.00,63.07
3325.00,63.07
3324.00,63.07
3323.00,63.08
3322.00,63.09
3321.00,63.10
3320.00,63.10
3319.00,63.09
3318.00,63.09
3317.00,63.09
3316.00,63.09
3315.00,63.09
3314.00,63.08
3313.00,63.07
3312.00,63.05
3311.00,63.03
3310.00,63.01
3309.00,62.98
3308.00,62.97
3307.00,62.96
3306.00,62.96
3305.00,62.98
3304.00,63.00
3303.00,63.02
3302.00,63.04
3301.00,63.05
3300.00,63.05
3299.00,63.04
3298.00,63.03
3297.00,63.02
3296.00,63.00
3295.00,63.00
3294.00,62.99
3293.00,63.00
3292.00,63.01
3291.00,63.02
3290.00,63.05
3289.00,63.07
3288.00,63.08
3287.00,63.09
3286.00,63.10
3285.00,63.10
3284.00,63.11
3283.00,63.11
3282.00,63.11
3281.00,63.12
3280.00,63.12
3279.00,63.13
3278.00,63.13
3277.00,63.12
3276.00,63.12
3275.00,63.12
3274.00,63.11
3273.00,63.12
3272.00,63.12
3271.00,63.13
3270.00,63.16
3269.00,63.20
3268.00,63.23
3267.00,63.27
3266.00,63.29
3265.00,63.31
3264.00,63.33
3263.00,63.35
3262.00,63.37
3261.00,63.38
3260.00,63.40
3259.00,63.42
3258.00,63.43
3257.00,63.45
3256.00,63.47
3255.00,63.50
3254.00,63.53
3253.00,63.57
3252.00,63.61
3251.00,63.64
3250.00,63.66
3249.00,63.67
3248.00,63.69
3247.00,63.72
3246.00,63.77
3245.00,63.82
3244.00,63.88
3243.00,63.93
3242.00,63.98
3241.00,64.02
3240.00,64.07
3239.00,64.11
3238.00,64.16
3237.00,64.19
3236.00,64.22
3235.00,64.25
3234.00,64.29
3233.00,64.35
3232.00,64.43
3231.00,64.51
3230.00,64.60
3229.00,64.67
3228.00,64.74
3227.00,64.81
3226.00,64.88
3225.00,64.95
3224.00,65.02
3223.00,65.10
3222.00,65.18
3221.00,65.25
3220.00,65.32
3219.00,65.39
3218.00,65.48
3217.00,65.57
3216.00,65.66
3215.00,65.75
3214.00,65.84
3213.00,65.94
3212.00,66.04
3211.00,66.14
3210.00,66.24
3209.00,66.33
3208.00,66.43
3207.00,66.53
3206.00,66.63
3205.00,66.74
3204.00,66.85
3203.00,66.96
3202.00,67.07
3201.00,67.19
3200.00,67.31
3199.00,67.42
3198.00,67.54
3197.00,67.66
3196.00,67.78
3195.00,67.90
3194.00,68.02
3193.00,68.14
3192.00,68.26
3191.00,68.39
3190.00,68.51
3189.00,68.65
3188.00,68.78
3187.00,68.92
3186.00,69.06
3185.00,69.19
3184.00,69.33
3183.00,69.47
3182.00,69.61
3181.00,69.75
3180.00,69.89
3179.00,70.04
3178.00,70.18
3177.00,70.32
3176.00,70.47
3175.00,70.62
3174.00,70.76
3173.00,70.91
3172.00,71.06
3171.00,71.21
3170.00,71.36
3169.00,71.51
3168.00,71.66
3167.00,71.81
3166.00,71.96
3165.00,72.11
3164.00,72.26
3163.00,72.41
3162.00,72.57
3161.00,72.73
3160.00,72.88
3159.00,73.03
3158.00,73.18
3157.00,73.33
3156.00,73.47
3155.00,73.61
3154.00,73.74
3153.00,73.88
3152.00,74.04
3151.00,74.22
3150.00,74.40
3149.00,74.58
3148.00,74.75
3147.00,74.92
3146.00,75.08
3145.00,75.23
3144.00,75.39
3143.00,75.54
3142.00,75.68
3141.00,75.82
3140.00,75.97
3139.00,76.12
3138.00,76.28
3137.00,76.46
3136.00,76.63
3135.00,76.79
3134.00,76.95
3133.00,77.11
3132.00,77.26
3131.00,77.40
3130.00,77.55
3129.00,77.71
3128.00,77.86
3127.00,78.02
3126.00,78.18
3125.00,78.33
3124.00,78.47
3123.00,78.61
3122.00,78.74
3121.00,78.88
3120.00,79.02
3119.00,79.16
3118.00,79.30
3117.00,79.46
3116.00,79.61
3115.00,79.77
3114.00,79.92
3113.00,80.08
3112.00,80.23
3111.00,80.37
3110.00,80.50
3109.00,80.64
3108.00,80.79
3107.00,80.94
3106.00,81.09
3105.00,81.24
3104.00,81.37
3103.00,81.50
3102.00,81.63
3101.00,81.76
3100.00,81.89
3099.00,82.03
3098.00,82.17
3097.00,82.31
3096.00,82.45
3095.00,82.58
3094.00,82.71
3093.00,82.84
3092.00,82.96
3091.00,83.08
3090.00,83.20
3089.00,83.33
3088.00,83.46
3087.00,83.59
3086.00,83.71
3085.00,83.84
3084.00,83.96
3083.00,84.08
3082.00,84.20
3081.00,84.33
3080.00,84.45
3079.00,84.57
3078.00,84.70
3077.00,84.83
3076.00,84.97
3075.00,85.09
3074.00,85.22
3073.00,85.34
3072.00,85.46
3071.00,85.58
3070.00,85.69
3069.00,85.80
3068.00,85.91
3067.00,86.03
3066.00,86.15
3065.00,86.27
3064.00,86.39
3063.00,86.51
3062.00,86.63
3061.00,86.75
3060.00,86.86
3059.00,86.97
3058.00,87.08
3057.00,87.19
3056.00,87.30
3055.00,87.41
3054.00,87.52
3053.00,87.63
3052.00,87.73
3051.00,87.83
3050.00,87.94
3049.00,88.05
3048.00,88.16
3047.00,88.26
3046.00,88.36
3045.00,88.46
3044.00,88.56
3043.00,88.66
3042.00,88.76
3041.00,88.86
3040.00,88.96
3039.00,89.06
3038.00,89.15
3037.00,89.25
3036.00,89.34
3035.00,89.43
3034.00,89.52
3033.00,89.61
3032.00,89.70
3031.00,89.80
3030.00,89.89
3029.00,89.98
3028.00,90.07
3027.00,90.15
3026.00,90.24
3025.00,90.32
3024.00,90.40
3023.00,90.48
3022.00,90.56
3021.00,90.65
3020.00,90.73
3019.00,90.81
3018.00,90.88
3017.00,90.96
3016.00,91.04
3015.00,91.11
3014.00,91.19
3013.00,91.26
3012.00,91.33
3011.00,91.40
3010.00,91.48
3009.00,91.55
3008.00,91.62
3007.00,91.69
3006.00,91.75
3005.00,91.82
3004.00,91.88
3003.00,91.94
3002.00,92.01
3001.00,92.07
3000.00,92.13
2999.00,92.19
2998.00,92.24
2997.00,92.30
2996.00,92.35
2995.00,92.41
2994.00,92.46
2993.00,92.51
2992.00,92.55
2991.00,92.59
2990.00,92.64
2989.00,92.68
2988.00,92.72
2987.00,92.77
2986.00,92.81
2985.00,92.85
2984.00,92.89
2983.00,92.93
2982.00,92.97
2981.00,93.00
2980.00,93.03
2979.00,93.05
2978.00,93.07
2977.00,93.09
2976.00,93.12
2975.00,93.14
2974.00,93.16
2973.00,93.18
2972.00,93.20
2971.00,93.21
2970.00,93.23
2969.00,93.25
2968.00,93.26
2967.00,93.27
2966.00,93.29
2965.00,93.30
2964.00,93.32
2963.00,93.34
2962.00,93.35
2961.00,93.37
2960.00,93.38
2959.00,93.40
2958.00,93.42
2957.00,93.43
2956.00,93.46
2955.00,93.48
2954.00,93.50
2953.00,93.52
2952.00,93.54
2951.00,93.56
2950.00,93.59
2949.00,93.61
2948.00,93.64
2947.00,93.67
2946.00,93.69
2945.00,93.72
2944.00,93.75
2943.00,93.77
2942.00,93.80
2941.00,93.84
2940.00,93.87
2939.00,93.91
2938.00,93.95
2937.00,93.99
2936.00,94.04
2935.00,94.09
2934.00,94.13
2933.00,94.18
2932.00,94.24
2931.00,94.29
2930.00,94.34
2929.00,94.39
2928.00,94.44
2927.00,94.49
2926.00,94.53
2925.00,94.58
2924.00,94.63
2923.00,94.68
2922.00,94.73
2921.00,94.78
2920.00,94.83
2919.00,94.88
2918.00,94.93
2917.00,94.98
2916.00,95.02
2915.00,95.06
2914.00,95.09
2913.00,95.13
2912.00,95.16
2911.00,95.18
2910.00,95.21
2909.00,95.23
2908.00,95.26
2907.00,95.28
2906.00,95.30
2905.00,95.32
2904.00,95.34
2903.00,95.35
2902.00,95.36
2901.00,95.38
2900.00,95.39
2899.00,95.41
2898.00,95.42
2897.00,95.43
2896.00,95.44
2895.00,95.45
2894.00,95.46
2893.00,95.47
2892.00,95.49
2891.00,95.50
2890.00,95.52
2889.00,95.54
2888.00,95.56
2887.00,95.59
2886.00,95.61
2885.00,95.64
2884.00,95.67
2883.00,95.70
2882.00,95.74
2881.00,95.77
2880.00,95.81
2879.00,95.84
2878.00,95.88
2877.00,95.92
2876.00,95.96
2875.00,96.01
2874.00,96.05
2873.00,96.08
2872.00,96.11
2871.00,96.14
2870.00,96.17
2869.00,96.20
2868.00,96.24
2867.00,96.27
2866.00,96.30
2865.00,96.33
2864.00,96.36
2863.00,96.38
2862.00,96.41
2861.00,96.44
2860.00,96.47
2859.00,96.49
2858.00,96.52
2857.00,96.54
2856.00,96.56
2855.00,96.58
2854.00,96.60
2853.00,96.62
2852.00,96.65
2851.00,96.68
2850.00,96.71
2849.00,96.74
2848.00,96.77
2847.00,96.79
2846.00,96.81
2845.00,96.84
2844.00,96.87
2843.00,96.90
2842.00,96.93
2841.00,96.96
2840.00,96.99
2839.00,97.02
2838.00,97.04
2837.00,97.06
2836.00,97.07
2835.00,97.10
2834.00,97.12
2833.00,97.14
2832.00,97.16
2831.00,97.18
2830.00,97.20
2829.00,97.22
2828.00,97.25
2827.00,97.27
2826.00,97.29
2825.00,97.31
2824.00,97.33
2823.00,97.35
2822.00,97.37
2821.00,97.39
2820.00,97.41
2819.00,97.43
2818.00,97.45
2817.00,97.46
2816.00,97.48
2815.00,97.50
2814.00,97.52
2813.00,97.54
2812.00,97.56
2811.00,97.58
2810.00,97.59
2809.00,97.61
2808.00,97.62
2807.00,97.63
2806.00,97.65
2805.00,97.67
2804.00,97.68
2803.00,97.70
2802.00,97.71
2801.00,97.72
2800.00,97.74
2799.00,97.76
2798.00,97.77
2797.00,97.78
2796.00,97.79
2795.00,97.80
2794.00,97.82
2793.00,97.83
2792.00,97.85
2791.00,97.87
2790.00,97.88
2789.00,97.89
2788.00,97.90
2787.00,97.91
2786.00,97.92
2785.00,97.93
2784.00,97.95
2783.00,97.96
2782.00,97.97
2781.00,97.98
2780.00,97.99
2779.00,98.00
2778.00,98.01
2777.00,98.02
2776.00,98.04
2775.00,98.05
2774.00,98.06
2773.00,98.07
2772.00,98.08
2771.00,98.09
2770.00,98.09
2769.00,98.10
2768.00,98.11
2767.00,98.11
2766.00,98.12
2765.00,98.13
2764.00,98.14
2763.00,98.15
2762.00,98.16
2761.00,98.17
2760.00,98.18
2759.00,98.19
2758.00,98.20
2757.00,98.21
2756.00,98.22
2755.00,98.22
2754.00,98.23
2753.00,98.24
2752.00,98.25
2751.00,98.26
2750.00,98.27
2749.00,98.28
2748.00,98.28
2747.00,98.29
2746.00,98.30
2745.00,98.30
2744.00,98.31
2743.00,98.31
2742.00,98.32
2741.00,98.33
2740.00,98.34
2739.00,98.34
2738.00,98.35
2737.00,98.36
2736.00,98.36
2735.00,98.37
2734.00,98.38
2733.00,98.38
2732.00,98.39
2731.00,98.40
2730.00,98.40
2729.00,98.41
2728.00,98.42
2727.00,98.43
2726.00,98.44
2725.00,98.44
2724.00,98.45
2723.00,98.46
2722.00,98.46
2721.00,98.47
2720.00,98.47
2719.00,98.47
2718.00,98.48
2717.00,98.49
2716.00,98.49
2715.00,98.50
2714.00,98.50
2713.00,98.51
2712.00,98.51
2711.00,98.52
2710.00,98.52
2709.00,98.53
2708.00,98.53
2707.00,98.54
2706.00,98.54
2705.00,98.55
2704.00,98.55
2703.00,98.56
2702.00,98.56
2701.00,98.57
2700.00,98.57
2699.00,98.57
2698.00,98.58
2697.00,98.58
2696.00,98.59
2695.00,98.59
2694.00,98.59
2693.00,98.59
2692.00,98.60
2691.00,98.60
2690.00,98.60
2689.00,98.61
2688.00,98.61
2687.00,98.62
2686.00,98.62
2685.00,98.63
2684.00,98.63
2683.00,98.63
2682.00,98.64
2681.00,98.64
2680.00,98.64
2679.00,98.65
2678.00,98.65
2677.00,98.65
2676.00,98.66
2675.00,98.66
2674.00,98.66
2673.00,98.66
2672.00,98.67
2671.00,98.67
2670.00,98.67
2669.00,98.67
2668.00,98.67
2667.00,98.67
2666.00,98.68
2665.00,98.68
2664.00,98.68
2663.00,98.69
2662.00,98.69
2661.00,98.70
2660.00,98.70
2659.00,98.71
2658.00,98.71
2657.00,98.72
2656.00,98.72
2655.00,98.72
2654.00,98.72
2653.00,98.72
2652.00,98.73
2651.00,98.73
2650.00,98.73
2649.00,98.74
2648.00,98.74
2647.00,98.74
2646.00,98.75
2645.00,98.75
2644.00,98.75
2643.00,98.76
2642.00,98.76
2641.00,98.76
2640.00,98.77
2639.00,98.77
2638.00,98.77
2637.00,98.78
2636.00,98.78
2635.00,98.78
2634.00,98.79
2633.00,98.79
2632.00,98.79
2631.00,98.79
2630.00,98.80
2629.00,98.80
2628.00,98.80
2627.00,98.80
2626.00,98.81
2625.00,98.81
2624.00,98.81
2623.00,98.81
2622.00,98.81
2621.00,98.81
2620.00,98.82
2619.00,98.82
2618.00,98.82
2617.00,98.82
2616.00,98.83
2615.00,98.83
2614.00,98.84
2613.00,98.84
2612.00,98.84
2611.00,98.84
2610.00,98.84
2609.00,98.84
2608.00,98.85
2607.00,98.85
2606.00,98.85
2605.00,98.85
2604.00,98.85
2603.00,98.86
2602.00,98.86
2601.00,98.86
2600.00,98.86
2599.00,98.86
2598.00,98.86
2597.00,98.86
2596.00,98.86
2595.00,98.86
2594.00,98.86
2593.00,98.86
2592.00,98.86
2591.00,98.86
2590.00,98.86
2589.00,98.87
2588.00,98.87
2587.00,98.87
2586.00,98.87
2585.00,98.87
2584.00,98.87
2583.00,98.87
2582.00,98.87
2581.00,98.87
2580.00,98.87
2579.00,98.87
2578.00,98.86
2577.00,98.86
2576.00,98.86
2575.00,98.86
2574.00,98.86
2573.00,98.86
2572.00,98.86
2571.00,98.86
2570.00,98.86
2569.00,98.86
2568.00,98.86
2567.00,98.86
2566.00,98.87
2565.00,98.87
2564.00,98.87
2563.00,98.87
2562.00,98.87
2561.00,98.86
2560.00,98.86
2559.00,98.86
2558.00,98.86
2557.00,98.86
2556.00,98.86
2555.00,98.86
2554.00,98.86
2553.00,98.85
2552.00,98.85
2551.00,98.85
2550.00,98.85
2549.00,98.85
2548.00,98.85
2547.00,98.85
2546.00,98.85
2545.00,98.85
2544.00,98.85
2543.00,98.84
2542.00,98.84
2541.00,98.84
2540.00,98.84
2539.00,98.84
2538.00,98.84
2537.00,98.84
2536.00,98.84
2535.00,98.84
2534.00,98.84
2533.00,98.84
2532.00,98.83
2531.00,98.83
2530.00,98.83
2529.00,98.83
2528.00,98.83
2527.00,98.83
2526.00,98.83
2525.00,98.83
2524.00,98.83
2523.00,98.83
2522.00,98.82
2521.00,98.82
2520.00,98.82
2519.00,98.82
2518.00,98.82
2517.00,98.82
2516.00,98.82
2515.00,98.82
2514.00,98.82
2513.00,98.82
2512.00,98.82
2511.00,98.81
2510.00,98.81
2509.00,98.80
2508.00,98.80
2507.00,98.81
2506.00,98.81
2505.00,98.81
2504.00,98.80
2503.00,98.80
2502.00,98.79
2501.00,98.79
2500.00,98.79
2499.00,98.79
2498.00,98.79
2497.00,98.78
2496.00,98.78
2495.00,98.78
2494.00,98.79
2493.00,98.79
2492.00,98.79
2491.00,98.79
2490.00,98.79
2489.00,98.78
2488.00,98.78
2487.00,98.77
2486.00,98.77
2485.00,98.77
2484.00,98.77
2483.00,98.78
2482.00,98.78
2481.00,98.78
2480.00,98.77
2479.00,98.76
2478.00,98.76
2477.00,98.76
2476.00,98.76
2475.00,98.76
2474.00,98.76
2473.00,98.76
2472.00,98.76
2471.00,98.76
2470.00,98.76
2469.00,98.76
2468.00,98.75
2467.00,98.75
2466.00,98.75
2465.00,98.75
2464.00,98.75
2463.00,98.75
2462.00,98.75
2461.00,98.75
2460.00,98.74
2459.00,98.74
2458.00,98.74
2457.00,98.73
2456.00,98.73
2455.00,98.73
2454.00,98.73
2453.00,98.72
2452.00,98.72
2451.00,98.72
2450.00,98.72
2449.00,98.72
2448.00,98.72
2447.00,98.72
2446.00,98.71
2445.00,98.71
2444.00,98.70
2443.00,98.70
2442.00,98.70
2441.00,98.70
2440.00,98.70
2439.00,98.70
2438.00,98.70
2437.00,98.69
2436.00,98.69
2435.00,98.68
2434.00,98.68
2433.00,98.68
2432.00,98.68
2431.00,98.68
2430.00,98.68
2429.00,98.68
2428.00,98.68
2427.00,98.68
2426.00,98.68
2425.00,98.67
2424.00,98.67
2423.00,98.67
2422.00,98.67
2421.00,98.66
2420.00,98.65
2419.00,98.65
2418.00,98.65
2417.00,98.65
2416.00,98.65
2415.00,98.65
2414.00,98.65
2413.00,98.65
2412.00,98.64
2411.00,98.64
2410.00,98.63
2409.00,98.63
2408.00,98.63
2407.00,98.63
2406.00,98.63
2405.00,98.62
2404.00,98.62
2403.00,98.61
2402.00,98.61
2401.00,98.61
2400.00,98.60
2399.00,98.60
2398.00,98.60
2397.00,98.60
2396.00,98.60
2395.00,98.60
2394.00,98.59
2393.00,98.59
2392.00,98.58
2391.00,98.58
2390.00,98.57
2389.00,98.56
2388.00,98.56
2387.00,98.55
2386.00,98.54
2385.00,98.53
2384.00,98.52
2383.00,98.52
2382.00,98.51
2381.00,98.52
2380.00,98.52
2379.00,98.52
2378.00,98.53
2377.00,98.53
2376.00,98.54
2375.00,98.54
2374.00,98.54
2373.00,98.53
2372.00,98.52
2371.00,98.50
2370.00,98.49
2369.00,98.49
2368.00,98.48
2367.00,98.47
2366.00,98.47
2365.00,98.47
2364.00,98.47
2363.00,98.48
2362.00,98.48
2361.00,98.47
2360.00,98.46
2359.00,98.45
2358.00,98.44
2357.00,98.45
2356.00,98.45
2355.00,98.44
2354.00,98.43
2353.00,98.42
2352.00,98.41
2351.00,98.41
2350.00,98.42
2349.00,98.41
2348.00,98.41
2347.00,98.40
2346.00,98.39
2345.00,98.39
2344.00,98.39
2343.00,98.39
2342.00,98.38
2341.00,98.37
2340.00,98.37
2339.00,98.36
2338.00,98.36
2337.00,98.35
2336.00,98.35
2335.00,98.34
2334.00,98.34
2333.00,98.33
2332.00,98.32
2331.00,98.32
2330.00,98.32
2329.00,98.32
2328.00,98.31
2327.00,98.29
2326.00,98.28
2325.00,98.26
2324.00,98.25
2323.00,98.25
2322.00,98.24
2321.00,98.24
2320.00,98.24
2319.00,98.24
2318.00,98.24
2317.00,98.24
2316.00,98.23
2315.00,98.23
2314.00,98.22
2313.00,98.21
2312.00,98.20
2311.00,98.19
2310.00,98.18
2309.00,98.17
2308.00,98.17
2307.00,98.17
2306.00,98.16
2305.00,98.16
2304.00,98.16
2303.00,98.15
2302.00,98.14
2301.00,98.13
2300.00,98.12
2299.00,98.11
2298.00,98.10
2297.00,98.10
2296.00,98.09
2295.00,98.09
2294.00,98.08
2293.00,98.08
2292.00,98.07
2291.00,98.07
2290.00,98.06
2289.00,98.05
2288.00,98.04
2287.00,98.04
2286.00,98.03
2285.00,98.02
2284.00,98.02
2283.00,98.01
2282.00,98.00
2281.00,98.00
2280.00,98.00
2279.00,97.99
2278.00,97.99
2277.00,97.99
2276.00,97.98
2275.00,97.97
2274.00,97.97
2273.00,97.96
2272.00,97.95
2271.00,97.93
2270.00,97.92
2269.00,97.91
2268.00,97.89
2267.00,97.88
2266.00,97.87
2265.00,97.87
2264.00,97.86
2263.00,97.86
2262.00,97.86
2261.00,97.86
2260.00,97.85
2259.00,97.84
2258.00,97.82
2257.00,97.81
2256.00,97.81
2255.00,97.80
2254.00,97.80
2253.00,97.79
2252.00,97.78
2251.00,97.77
2250.00,97.76
2249.00,97.76
2248.00,97.76
2247.00,97.76
2246.00,97.75
2245.00,97.74
2244.00,97.73
2243.00,97.72
2242.00,97.72
2241.00,97.71
2240.00,97.71
2239.00,97.69
2238.00,97.68
2237.00,97.66
2236.00,97.65
2235.00,97.64
2234.00,97.63
2233.00,97.63
2232.00,97.62
2231.00,97.62
2230.00,97.61
2229.00,97.60
2228.00,97.58
2227.00,97.57
2226.00,97.57
2225.00,97.56
2224.00,97.55
2223.00,97.55
2222.00,97.54
2221.00,97.53
2220.00,97.52
2219.00,97.52
2218.00,97.51
2217.00,97.51
2216.00,97.50
2215.00,97.48
2214.00,97.48
2213.00,97.47
2212.00,97.46
2211.00,97.45
2210.00,97.44
2209.00,97.43
2208.00,97.43
2207.00,97.42
2206.00,97.41
2205.00,97.41
2204.00,97.40
2203.00,97.39
2202.00,97.38
2201.00,97.37
2200.00,97.36
2199.00,97.36
2198.00,97.35
2197.00,97.33
2196.00,97.32
2195.00,97.30
2194.00,97.30
2193.00,97.29
2192.00,97.29
2191.00,97.28
2190.00,97.28
2189.00,97.28
2188.00,97.28
2187.00,97.28
2186.00,97.27
2185.00,97.26
2184.00,97.25
2183.00,97.24
2182.00,97.23
2181.00,97.21
2180.00,97.19
2179.00,97.17
2178.00,97.16
2177.00,97.16
2176.00,97.16
2175.00,97.16
2174.00,97.17
2173.00,97.16
2172.00,97.16
2171.00,97.15
2170.00,97.14
2169.00,97.14
2168.00,97.13
2167.00,97.12
2166.00,97.12
2165.00,97.13
2164.00,97.13
2163.00,97.13
2162.00,97.12
2161.00,97.12
2160.00,97.10
2159.00,97.09
2158.00,97.08
2157.00,97.08
2156.00,97.07
2155.00,97.07
2154.00,97.07
2153.00,97.08
2152.00,97.08
2151.00,97.08
2150.00,97.08
2149.00,97.07
2148.00,97.06
2147.00,97.04
2146.00,97.03
2145.00,97.03
2144.00,97.03
2143.00,97.04
2142.00,97.04
2141.00,97.05
2140.00,97.05
2139.00,97.05
2138.00,97.05
2137.00,97.05
2136.00,97.04
2135.00,97.04
2134.00,97.04
2133.00,97.05
2132.00,97.05
2131.00,97.05
2130.00,97.05
2129.00,97.05
2128.00,97.06
2127.00,97.06
2126.00,97.06
2125.00,97.06
2124.00,97.06
2123.00,97.05
2122.00,97.06
2121.00,97.06
2120.00,97.07
2119.00,97.07
2118.00,97.07
2117.00,97.07
2116.00,97.07
2115.00,97.07
2114.00,97.07
2113.00,97.07
2112.00,97.07
2111.00,97.08
2110.00,97.08
2109.00,97.09
2108.00,97.09
2107.00,97.09
2106.00,97.09
2105.00,97.09
2104.00,97.10
2103.00,97.10
2102.00,97.10
2101.00,97.10
2100.00,97.10
2099.00,97.10
2098.00,97.11
2097.00,97.12
2096.00,97.12
2095.00,97.12
2094.00,97.12
2093.00,97.12
2092.00,97.12
2091.00,97.13
2090.00,97.14
2089.00,97.15
2088.00,97.16
2087.00,97.16
2086.00,97.17
2085.00,97.18
2084.00,97.19
2083.00,97.19
2082.00,97.19
2081.00,97.19
2080.00,97.19
2079.00,97.19
2078.00,97.20
2077.00,97.20
2076.00,97.21
2075.00,97.21
2074.00,97.22
2073.00,97.23
2072.00,97.23
2071.00,97.23
2070.00,97.24
2069.00,97.24
2068.00,97.25
2067.00,97.25
2066.00,97.27
2065.00,97.28
2064.00,97.29
2063.00,97.29
2062.00,97.29
2061.00,97.30
2060.00,97.30
2059.00,97.31
2058.00,97.32
2057.00,97.34
2056.00,97.35
2055.00,97.35
2054.00,97.36
2053.00,97.37
2052.00,97.38
2051.00,97.38
2050.00,97.39
2049.00,97.40
2048.00,97.39
2047.00,97.39
2046.00,97.39
2045.00,97.40
2044.00,97.41
2043.00,97.42
2042.00,97.43
2041.00,97.43
2040.00,97.44
2039.00,97.45
2038.00,97.47
2037.00,97.49
2036.00,97.51
2035.00,97.52
2034.00,97.52
2033.00,97.53
2032.00,97.53
2031.00,97.54
2030.00,97.56
2029.00,97.56
2028.00,97.56
2027.00,97.55
2026.00,97.56
2025.00,97.57
2024.00,97.59
2023.00,97.60
2022.00,97.61
2021.00,97.61
2020.00,97.61
2019.00,97.62
2018.00,97.63
2017.00,97.64
2016.00,97.65
2015.00,97.65
2014.00,97.66
2013.00,97.68
2012.00,97.69
2011.00,97.70
2010.00,97.71
2009.00,97.72
2008.00,97.72
2007.00,97.73
2006.00,97.74
2005.00,97.75
2004.00,97.75
2003.00,97.75
2002.00,97.76
2001.00,97.77
2000.00,97.78
1999.00,97.80
1998.00,97.81
1997.00,97.82
1996.00,97.81
1995.00,97.81
1994.00,97.82
1993.00,97.83
1992.00,97.83
1991.00,97.83
1990.00,97.84
1989.00,97.85
1988.00,97.86
1987.00,97.87
1986.00,97.88
1985.00,97.89
1984.00,97.89
1983.00,97.90
1982.00,97.91
1981.00,97.92
1980.00,97.92
1979.00,97.93
1978.00,97.95
1977.00,97.96
1976.00,97.97
1975.00,97.97
1974.00,97.97
1973.00,97.98
1972.00,97.97
1971.00,97.97
1970.00,97.98
1969.00,97.99
1968.00,97.99
1967.00,98.00
1966.00,98.02
1965.00,98.03
1964.00,98.03
1963.00,98.04
1962.00,98.05
1961.00,98.05
1960.00,98.05
1959.00,98.04
1958.00,98.05
1957.00,98.06
1956.00,98.07
1955.00,98.08
1954.00,98.09
1953.00,98.10
1952.00,98.09
1951.00,98.09
1950.00,98.10
1949.00,98.10
1948.00,98.10
1947.00,98.11
1946.00,98.12
1945.00,98.12
1944.00,98.12
1943.00,98.13
1942.00,98.14
1941.00,98.15
1940.00,98.15
1939.00,98.14
1938.00,98.15
1937.00,98.16
1936.00,98.17
1935.00,98.17
1934.00,98.18
1933.00,98.18
1932.00,98.18
1931.00,98.18
1930.00,98.19
1929.00,98.19
1928.00,98.19
1927.00,98.19
1926.00,98.20
1925.00,98.20
1924.00,98.21
1923.00,98.21
1922.00,98.22
1921.00,98.22
1920.00,98.22
1919.00,98.21
1918.00,98.22
1917.00,98.22
1916.00,98.22
1915.00,98.22
1914.00,98.23
1913.00,98.24
1912.00,98.24
1911.00,98.24
1910.00,98.24
1909.00,98.24
1908.00,98.24
1907.00,98.24
1906.00,98.24
1905.00,98.25
1904.00,98.25
1903.00,98.25
1902.00,98.26
1901.00,98.26
1900.00,98.26
1899.00,98.25
1898.00,98.26
1897.00,98.26
1896.00,98.26
1895.00,98.27
1894.00,98.27
1893.00,98.27
1892.00,98.26
1891.00,98.27
1890.00,98.27
1889.00,98.28
1888.00,98.28
1887.00,98.27
1886.00,98.27
1885.00,98.27
1884.00,98.27
1883.00,98.27
1882.00,98.27
1881.00,98.27
1880.00,98.27
1879.00,98.27
1878.00,98.27
1877.00,98.27
1876.00,98.27
1875.00,98.26
1874.00,98.26
1873.00,98.26
1872.00,98.25
1871.00,98.25
1870.00,98.25
1869.00,98.25
1868.00,98.25
1867.00,98.25
1866.00,98.25
1865.00,98.25
1864.00,98.25
1863.00,98.24
1862.00,98.25
1861.00,98.25
1860.00,98.24
1859.00,98.24
1858.00,98.24
1857.00,98.24
1856.00,98.23
1855.00,98.22
1854.00,98.22
1853.00,98.23
1852.00,98.22
1851.00,98.21
1850.00,98.21
1849.00,98.21
1848.00,98.20
1847.00,98.20
1846.00,98.20
1845.00,98.19
1844.00,98.18
1843.00,98.18
1842.00,98.18
1841.00,98.18
1840.00,98.18
1839.00,98.17
1838.00,98.17
1837.00,98.17
1836.00,98.17
1835.00,98.16
1834.00,98.15
1833.00,98.15
1832.00,98.14
1831.00,98.14
1830.00,98.14
1829.00,98.14
1828.00,98.13
1827.00,98.13
1826.00,98.12
1825.00,98.12
1824.00,98.11
1823.00,98.10
1822.00,98.09
1821.00,98.08
1820.00,98.07
1819.00,98.07
1818.00,98.07
1817.00,98.06
1816.00,98.05
1815.00,98.04
1814.00,98.04
1813.00,98.03
1812.00,98.02
1811.00,98.01
1810.00,98.01
1809.00,98.00
1808.00,97.99
1807.00,97.98
1806.00,97.98
1805.00,97.97
1804.00,97.96
1803.00,97.96
1802.00,97.95
1801.00,97.94
1800.00,97.93
1799.00,97.90
1798.00,97.89
1797.00,97.87
1796.00,97.86
1795.00,97.85
1794.00,97.83
1793.00,97.82
1792.00,97.80
1791.00,97.79
1790.00,97.79
1789.00,97.78
1788.00,97.76
1787.00,97.75
1786.00,97.74
1785.00,97.72
1784.00,97.71
1783.00,97.69
1782.00,97.68
1781.00,97.66
1780.00,97.64
1779.00,97.62
1778.00,97.61
1777.00,97.59
1776.00,97.57
1775.00,97.56
1774.00,97.54
1773.00,97.51
1772.00,97.48
1771.00,97.45
1770.00,97.43
1769.00,97.42
1768.00,97.39
1767.00,97.37
1766.00,97.35
1765.00,97.33
1764.00,97.30
1763.00,97.27
1762.00,97.25
1761.00,97.22
1760.00,97.18
1759.00,97.15
1758.00,97.12
1757.00,97.09
1756.00,97.05
1755.00,97.01
1754.00,96.99
1753.00,96.96
1752.00,96.92
1751.00,96.87
1750.00,96.83
1749.00,96.79
1748.00,96.74
1747.00,96.69
1746.00,96.65
1745.00,96.61
1744.00,96.57
1743.00,96.52
1742.00,96.48
1741.00,96.42
1740.00,96.35
1739.00,96.28
1738.00,96.24
1737.00,96.20
1736.00,96.15
1735.00,96.08
1734.00,95.99
1733.00,95.91
1732.00,95.83
1731.00,95.77
1730.00,95.72
1729.00,95.65
1728.00,95.57
1727.00,95.49
1726.00,95.42
1725.00,95.34
1724.00,95.24
1723.00,95.14
1722.00,95.06
1721.00,94.98
1720.00,94.90
1719.00,94.79
1718.00,94.67
1717.00,94.52
1716.00,94.36
1715.00,94.22
1714.00,94.11
1713.00,94.00
1712.00,93.88
1711.00,93.76
1710.00,93.64
1709.00,93.52
1708.00,93.38
1707.00,93.22
1706.00,93.04
1705.00,92.86
1704.00,92.69
1703.00,92.56
1702.00,92.42
1701.00,92.18
1700.00,91.87
1699.00,91.61
1698.00,91.46
1697.00,91.30
1696.00,91.03
1695.00,90.73
1694.00,90.49
1693.00,90.30
1692.00,90.11
1691.00,89.88
1690.00,89.64
1689.00,89.38
1688.00,89.16
1687.00,88.97
1686.00,88.78
1685.00,88.47
1684.00,88.02
1683.00,87.61
1682.00,87.34
1681.00,87.12
1680.00,86.89
1679.00,86.64
1678.00,86.41
1677.00,86.16
1676.00,85.83
1675.00,85.44
1674.00,85.11
1673.00,84.86
1672.00,84.62
1671.00,84.33
1670.00,83.97
1669.00,83.59
1668.00,83.24
1667.00,82.98
1666.00,82.78
1665.00,82.57
1664.00,82.31
1663.00,81.99
1662.00,81.68
1661.00,81.43
1660.00,81.22
1659.00,81.02
1658.00,80.86
1657.00,80.72
1656.00,80.60
1655.00,80.46
1654.00,80.23
1653.00,79.89
1652.00,79.61
1651.00,79.51
1650.00,79.48
1649.00,79.43
1648.00,79.32
1647.00,79.15
1646.00,79.01
1645.00,78.93
1644.00,78.89
1643.00,78.85
1642.00,78.83
1641.00,78.82
1640.00,78.81
1639.00,78.81
1638.00,78.82
1637.00,78.85
1636.00,78.87
1635.00,78.91
1634.00,78.99
1633.00,79.11
1632.00,79.23
1631.00,79.35
1630.00,79.50
1629.00,79.68
1628.00,79.89
1627.00,80.11
1626.00,80.33
1625.00,80.57
1624.00,80.83
1623.00,81.14
1622.00,81.46
1621.00,81.75
1620.00,82.01
1619.00,82.26
1618.00,82.54
1617.00,82.91
1616.00,83.30
1615.00,83.64
1614.00,83.93
1613.00,84.20
1612.00,84.48
1611.00,84.77
1610.00,85.06
1609.00,85.36
1608.00,85.66
1607.00,85.94
1606.00,86.20
1605.00,86.45
1604.00,86.70
1603.00,86.94
1602.00,87.18
1601.00,87.40
1600.00,87.62
1599.00,87.82
1598.00,88.00
1597.00,88.18
1596.00,88.36
1595.00,88.54
1594.00,88.70
1593.00,88.85
1592.00,88.99
1591.00,89.12
1590.00,89.24
1589.00,89.36
1588.00,89.47
1587.00,89.57
1586.00,89.66
1585.00,89.75
1584.00,89.83
1583.00,89.90
1582.00,89.96
1581.00,90.02
1580.00,90.07
1579.00,90.12
1578.00,90.15
1577.00,90.18
1576.00,90.20
1575.00,90.21
1574.00,90.21
1573.00,90.22
1572.00,90.22
1571.00,90.21
1570.00,90.19
1569.00,90.17
1568.00,90.17
1567.00,90.16
1566.00,90.15
1565.00,90.14
1564.00,90.14
1563.00,90.15
1562.00,90.17
1561.00,90.19
1560.00,90.19
1559.00,90.19
1558.00,90.20
1557.00,90.21
1556.00,90.25
1555.00,90.30
1554.00,90.36
1553.00,90.42
1552.00,90.48
1551.00,90.55
1550.00,90.62
1549.00,90.69
1548.00,90.76
1547.00,90.82
1546.00,90.87
1545.00,90.94
1544.00,91.02
1543.00,91.09
1542.00,91.16
1541.00,91.25
1540.00,91.39
1539.00,91.51
1538.00,91.58
1537.00,91.62
1536.00,91.67
1535.00,91.72
1534.00,91.78
1533.00,91.87
1532.00,91.96
1531.00,92.03
1530.00,92.08
1529.00,92.14
1528.00,92.20
1527.00,92.26
1526.00,92.33
1525.00,92.38
1524.00,92.43
1523.00,92.49
1522.00,92.55
1521.00,92.63
1520.00,92.70
1519.00,92.74
1518.00,92.78
1517.00,92.83
1516.00,92.90
1515.00,92.96
1514.00,93.00
1513.00,93.03
1512.00,93.07
1511.00,93.12
1510.00,93.16
1509.00,93.20
1508.00,93.25
1507.00,93.33
1506.00,93.39
1505.00,93.40
1504.00,93.40
1503.00,93.42
1502.00,93.44
1501.00,93.46
1500.00,93.48
1499.00,93.51
1498.00,93.53
1497.00,93.56
1496.00,93.57
1495.00,93.59
1494.00,93.59
1493.00,93.59
1492.00,93.59
1491.00,93.58
1490.00,93.58
1489.00,93.57
1488.00,93.56
1487.00,93.54
1486.00,93.52
1485.00,93.49
1484.00,93.46
1483.00,93.43
1482.00,93.38
1481.00,93.34
1480.00,93.29
1479.00,93.24
1478.00,93.19
1477.00,93.13
1476.00,93.06
1475.00,92.98
1474.00,92.89
1473.00,92.78
1472.00,92.68
1471.00,92.59
1470.00,92.53
1469.00,92.47
1468.00,92.42
1467.00,92.37
1466.00,92.30
1465.00,92.23
1464.00,92.16
1463.00,92.10
1462.00,92.06
1461.00,92.03
1460.00,92.01
1459.00,91.99
1458.00,91.98
1457.00,91.97
1456.00,91.99
1455.00,92.02
1454.00,92.06
1453.00,92.09
1452.00,92.14
1451.00,92.17
1450.00,92.21
1449.00,92.23
1448.00,92.26
1447.00,92.28
1446.00,92.29
1445.00,92.30
1444.00,92.30
1443.00,92.30
1442.00,92.29
1441.00,92.29
1440.00,92.29
1439.00,92.30
1438.00,92.30
1437.00,92.30
1436.00,92.30
1435.00,92.30
1434.00,92.30
1433.00,92.30
1432.00,92.30
1431.00,92.29
1430.00,92.28
1429.00,92.27
1428.00,92.26
1427.00,92.26
1426.00,92.25
1425.00,92.24
1424.00,92.23
1423.00,92.23
1422.00,92.23
1421.00,92.22
1420.00,92.22
1419.00,92.21
1418.00,92.20
1417.00,92.20
1416.00,92.19
1415.00,92.19
1414.00,92.18
1413.00,92.17
1412.00,92.17
1411.00,92.17
1410.00,92.18
1409.00,92.19
1408.00,92.20
1407.00,92.22
1406.00,92.25
1405.00,92.27
1404.00,92.30
1403.00,92.33
1402.00,92.36
1401.00,92.38
1400.00,92.41
1399.00,92.44
1398.00,92.48
1397.00,92.51
1396.00,92.53
1395.00,92.56
1394.00,92.59
1393.00,92.60
1392.00,92.61
1391.00,92.63
1390.00,92.64
1389.00,92.65
1388.00,92.66
1387.00,92.68
1386.00,92.69
1385.00,92.69
1384.00,92.69
1383.00,92.70
1382.00,92.69
1381.00,92.69
1380.00,92.69
1379.00,92.69
1378.00,92.69
1377.00,92.69
1376.00,92.70
1375.00,92.70
1374.00,92.70
1373.00,92.71
1372.00,92.71
1371.00,92.71
1370.00,92.71
1369.00,92.71
1368.00,92.72
1367.00,92.73
1366.00,92.73
1365.00,92.73
1364.00,92.74
1363.00,92.74
1362.00,92.74
1361.00,92.73
1360.00,92.73
1359.00,92.71
1358.00,92.70
1357.00,92.69
1356.00,92.68
1355.00,92.67
1354.00,92.65
1353.00,92.63
1352.00,92.62
1351.00,92.60
1350.00,92.58
1349.00,92.56
1348.00,92.55
1347.00,92.53
1346.00,92.50
1345.00,92.48
1344.00,92.46
1343.00,92.43
1342.00,92.41
1341.00,92.39
1340.00,92.37
1339.00,92.37
1338.00,92.36
1337.00,92.37
1336.00,92.38
1335.00,92.40
1334.00,92.42
1333.00,92.44
1332.00,92.47
1331.00,92.49
1330.00,92.51
1329.00,92.54
1328.00,92.56
1327.00,92.58
1326.00,92.60
1325.00,92.62
1324.00,92.63
1323.00,92.65
1322.00,92.66
1321.00,92.67
1320.00,92.68
1319.00,92.70
1318.00,92.72
1317.00,92.74
1316.00,92.77
1315.00,92.79
1314.00,92.81
1313.00,92.83
1312.00,92.85
1311.00,92.87
1310.00,92.89
1309.00,92.90
1308.00,92.91
1307.00,92.92
1306.00,92.93
1305.00,92.94
1304.00,92.95
1303.00,92.96
1302.00,92.97
1301.00,92.98
1300.00,92.99
1299.00,92.99
1298.00,92.99
1297.00,92.99
1296.00,92.99
1295.00,92.98
1294.00,92.97
1293.00,92.96
1292.00,92.95
1291.00,92.93
1290.00,92.92
1289.00,92.90
1288.00,92.89
1287.00,92.89
1286.00,92.88
1285.00,92.88
1284.00,92.89
1283.00,92.89
1282.00,92.90
1281.00,92.90
1280.00,92.91
1279.00,92.92
1278.00,92.93
1277.00,92.94
1276.00,92.95
1275.00,92.95
1274.00,92.95
1273.00,92.95
1272.00,92.95
1271.00,92.95
1270.00,92.94
1269.00,92.94
1268.00,92.93
1267.00,92.93
1266.00,92.92
1265.00,92.91
1264.00,92.90
1263.00,92.88
1262.00,92.86
1261.00,92.85
1260.00,92.83
1259.00,92.81
1258.00,92.79
1257.00,92.77
1256.00,92.74
1255.00,92.72
1254.00,92.70
1253.00,92.67
1252.00,92.65
1251.00,92.63
1250.00,92.61
1249.00,92.59
1248.00,92.57
1247.00,92.55
1246.00,92.53
1245.00,92.52
1244.00,92.51
1243.00,92.50
1242.00,92.50
1241.00,92.51
1240.00,92.52
1239.00,92.54
1238.00,92.56
1237.00,92.59
1236.00,92.62
1235.00,92.65
1234.00,92.69
1233.00,92.73
1232.00,92.77
1231.00,92.81
1230.00,92.85
1229.00,92.89
1228.00,92.93
1227.00,92.96
1226.00,92.99
1225.00,93.03
1224.00,93.05
1223.00,93.07
1222.00,93.09
1221.00,93.10
1220.00,93.11
1219.00,93.12
1218.00,93.12
1217.00,93.11
1216.00,93.10
1215.00,93.09
1214.00,93.08
1213.00,93.06
1212.00,93.04
1211.00,93.03
1210.00,93.01
1209.00,93.00
1208.00,92.99
1207.00,92.99
1206.00,92.99
1205.00,93.00
1204.00,93.01
1203.00,93.03
1202.00,93.06
1201.00,93.10
1200.00,93.15
1199.00,93.20
1198.00,93.25
1197.00,93.30
1196.00,93.34
1195.00,93.39
1194.00,93.43
1193.00,93.48
1192.00,93.52
1191.00,93.56
1190.00,93.59
1189.00,93.63
1188.00,93.66
1187.00,93.69
1186.00,93.71
1185.00,93.73
1184.00,93.75
1183.00,93.76
1182.00,93.78
1181.00,93.78
1180.00,93.79
1179.00,93.79
1178.00,93.78
1177.00,93.78
1176.00,93.77
1175.00,93.77
1174.00,93.76
1173.00,93.74
1172.00,93.72
1171.00,93.70
1170.00,93.66
1169.00,93.63
1168.00,93.58
1167.00,93.53
1166.00,93.46
1165.00,93.40
1164.00,93.33
1163.00,93.26
1162.00,93.18
1161.00,93.10
1160.00,93.02
1159.00,92.94
1158.00,92.86
1157.00,92.78
1156.00,92.71
1155.00,92.64
1154.00,92.59
1153.00,92.55
1152.00,92.52
1151.00,92.51
1150.00,92.51
1149.00,92.52
1148.00,92.54
1147.00,92.57
1146.00,92.61
1145.00,92.65
1144.00,92.70
1143.00,92.74
1142.00,92.78
1141.00,92.81
1140.00,92.83
1139.00,92.85
1138.00,92.86
1137.00,92.85
1136.00,92.83
1135.00,92.80
1134.00,92.76
1133.00,92.69
1132.00,92.62
1131.00,92.53
1130.00,92.43
1129.00,92.32
1128.00,92.19
1127.00,92.05
1126.00,91.89
1125.00,91.73
1124.00,91.55
1123.00,91.37
1122.00,91.19
1121.00,91.01
1120.00,90.83
1119.00,90.65
1118.00,90.49
1117.00,90.34
1116.00,90.21
1115.00,90.11
1114.00,90.04
1113.00,89.99
1112.00,89.96
1111.00,89.96
1110.00,89.99
1109.00,90.03
1108.00,90.08
1107.00,90.14
1106.00,90.21
1105.00,90.28
1104.00,90.36
1103.00,90.44
1102.00,90.51
1101.00,90.59
1100.00,90.66
1099.00,90.74
1098.00,90.80
1097.00,90.85
1096.00,90.90
1095.00,90.93
1094.00,90.95
1093.00,90.95
1092.00,90.93
1091.00,90.90
1090.00,90.84
1089.00,90.75
1088.00,90.65
1087.00,90.53
1086.00,90.39
1085.00,90.25
1084.00,90.11
1083.00,89.97
1082.00,89.85
1081.00,89.76
1080.00,89.69
1079.00,89.65
1078.00,89.64
1077.00,89.65
1076.00,89.68
1075.00,89.72
1074.00,89.76
1073.00,89.79
1072.00,89.82
1071.00,89.83
1070.00,89.81
1069.00,89.77
1068.00,89.71
1067.00,89.61
1066.00,89.49
1065.00,89.35
1064.00,89.19
1063.00,89.00
1062.00,88.80
1061.00,88.58
1060.00,88.36
1059.00,88.13
1058.00,87.91
1057.00,87.69
1056.00,87.47
1055.00,87.26
1054.00,87.05
1053.00,86.83
1052.00,86.60
1051.00,86.37
1050.00,86.13
1049.00,85.88
1048.00,85.65
1047.00,85.44
1046.00,85.25
1045.00,85.10
1044.00,84.98
1043.00,84.89
1042.00,84.84
1041.00,84.82
1040.00,84.82
1039.00,84.86
1038.00,84.91
1037.00,84.99
1036.00,85.07
1035.00,85.17
1034.00,85.28
1033.00,85.40
1032.00,85.54
1031.00,85.69
1030.00,85.84
1029.00,86.01
1028.00,86.19
1027.00,86.39
1026.00,86.59
1025.00,86.81
1024.00,87.03
1023.00,87.26
1022.00,87.50
1021.00,87.73
1020.00,87.96
1019.00,88.18
1018.00,88.40
1017.00,88.60
1016.00,88.79
1015.00,88.96
1014.00,89.13
1013.00,89.27
1012.00,89.41
1011.00,89.52
1010.00,89.62
1009.00,89.70
1008.00,89.76
1007.00,89.80
1006.00,89.82
1005.00,89.82
1004.00,89.80
1003.00,89.76
1002.00,89.70
1001.00,89.62
1000.00,89.53
999.00,89.44
998.00,89.35
997.00,89.28
996.00,89.24
995.00,89.23
994.00,89.25
993.00,89.30
992.00,89.39
991.00,89.51
990.00,89.64
989.00,89.79
988.00,89.95
987.00,90.10
986.00,90.24
985.00,90.36
984.00,90.46
983.00,90.55
982.00,90.61
981.00,90.66
980.00,90.69
979.00,90.72
978.00,90.74
977.00,90.76
976.00,90.78
975.00,90.80
974.00,90.83
973.00,90.86
972.00,90.90
971.00,90.93
970.00,90.97
969.00,91.00
968.00,91.03
967.00,91.05
966.00,91.07
965.00,91.08
964.00,91.08
963.00,91.08
962.00,91.07
961.00,91.06
960.00,91.05
959.00,91.03
958.00,91.00
957.00,90.98
956.00,90.95
955.00,90.92
954.00,90.88
953.00,90.84
952.00,90.79
951.00,90.75
950.00,90.69
949.00,90.64
948.00,90.58
947.00,90.52
946.00,90.46
945.00,90.39
944.00,90.31
943.00,90.23
942.00,90.14
941.00,90.05
940.00,89.95
939.00,89.85
938.00,89.74
937.00,89.62
936.00,89.49
935.00,89.36
934.00,89.22
933.00,89.08
932.00,88.94
931.00,88.80
930.00,88.66
929.00,88.53
928.00,88.42
927.00,88.31
926.00,88.22
925.00,88.13
924.00,88.06
923.00,87.99
922.00,87.93
921.00,87.88
920.00,87.83
919.00,87.78
918.00,87.72
917.00,87.67
916.00,87.62
915.00,87.56
914.00,87.51
913.00,87.45
912.00,87.40
911.00,87.35
910.00,87.30
909.00,87.25
908.00,87.20
907.00,87.14
906.00,87.08
905.00,87.02
904.00,86.95
903.00,86.88
902.00,86.81
901.00,86.74
900.00,86.66
899.00,86.59
898.00,86.51
897.00,86.42
896.00,86.33
895.00,86.24
894.00,86.15
893.00,86.05
892.00,85.95
891.00,85.85
890.00,85.75
889.00,85.65
888.00,85.54
887.00,85.42
886.00,85.31
885.00,85.18
884.00,85.06
883.00,84.93
882.00,84.80
881.00,84.66
880.00,84.52
879.00,84.37
878.00,84.22
877.00,84.06
876.00,83.90
875.00,83.73
874.00,83.57
873.00,83.40
872.00,83.22
871.00,83.05
870.00,82.89
869.00,82.72
868.00,82.56
867.00,82.40
866.00,82.26
865.00,82.11
864.00,81.97
863.00,81.83
862.00,81.69
861.00,81.55
860.00,81.41
859.00,81.27
858.00,81.12
857.00,80.98
856.00,80.83
855.00,80.69
854.00,80.55
853.00,80.41
852.00,80.26
851.00,80.12
850.00,79.99
849.00,79.86
848.00,79.73
847.00,79.60
846.00,79.49
845.00,79.37
844.00,79.25
843.00,79.13
842.00,79.01
841.00,78.89
840.00,78.77
839.00,78.65
838.00,78.54
837.00,78.42
836.00,78.30
835.00,78.18
834.00,78.06
833.00,77.93
832.00,77.80
831.00,77.66
830.00,77.53
829.00,77.40
828.00,77.26
827.00,77.11
826.00,76.97
825.00,76.82
824.00,76.66
823.00,76.50
822.00,76.35
821.00,76.19
820.00,76.04
819.00,75.89
818.00,75.74
817.00,75.59
816.00,75.44
815.00,75.29
814.00,75.15
813.00,75.01
812.00,74.86
811.00,74.72
810.00,74.58
809.00,74.44
808.00,74.29
807.00,74.14
806.00,74.00
805.00,73.85
804.00,73.70
803.00,73.55
802.00,73.41
801.00,73.26
800.00,73.10
799.00,72.95
798.00,72.80
797.00,72.65
796.00,72.49
795.00,72.34
794.00,72.19
793.00,72.04
792.00,71.89
791.00,71.73
790.00,71.58
789.00,71.43
788.00,71.27
787.00,71.11
786.00,70.96
785.00,70.81
784.00,70.66
783.00,70.50
782.00,70.35
781.00,70.21
780.00,70.06
779.00,69.91
778.00,69.77
777.00,69.62
776.00,69.47
775.00,69.32
774.00,69.18
773.00,69.04
772.00,68.89
771.00,68.73
770.00,68.59
769.00,68.44
768.00,68.28
767.00,68.13
766.00,67.99
765.00,67.84
764.00,67.68
763.00,67.53
762.00,67.39
761.00,67.25
760.00,67.10
759.00,66.96
758.00,66.82
757.00,66.68
756.00,66.54
755.00,66.40
754.00,66.26
753.00,66.13
752.00,65.99
751.00,65.85
750.00,65.72
749.00,65.58
748.00,65.44
747.00,65.30
746.00,65.16
745.00,65.03
744.00,64.88
743.00,64.74
742.00,64.61
741.00,64.48
740.00,64.33
739.00,64.20
738.00,64.07
737.00,63.93
736.00,63.79
735.00,63.65
734.00,63.51
733.00,63.38
732.00,63.24
731.00,63.10
730.00,62.96
729.00,62.83
728.00,62.68
727.00,62.55
726.00,62.42
725.00,62.28
724.00,62.14
723.00,62.00
722.00,61.86
721.00,61.72
720.00,61.57
719.00,61.42
718.00,61.29
717.00,61.17
716.00,61.03
715.00,60.90
714.00,60.77
713.00,60.63
712.00,60.49
711.00,60.35
710.00,60.22
709.00,60.09
708.00,59.95
707.00,59.82
706.00,59.70
705.00,59.57
704.00,59.43
703.00,59.31
702.00,59.19
701.00,59.07
700.00,58.94
699.00,58.81
698.00,58.69
697.00,58.57
696.00,58.44
695.00,58.32
694.00,58.21
693.00,58.10
692.00,57.98
691.00,57.85
690.00,57.73
689.00,57.61
688.00,57.47
687.00,57.34
686.00,57.23
685.00,57.11
684.00,56.97
683.00,56.84
682.00,56.71
681.00,56.58
680.00,56.44
679.00,56.30
678.00,56.18
677.00,56.06
676.00,55.92
675.00,55.79
674.00,55.68
673.00,55.58
672.00,55.48
671.00,55.40
670.00,55.34
669.00,55.22
668.00,55.00
667.00,54.81
666.00,54.72
665.00,54.67
664.00,54.59
663.00,54.49
662.00,54.41
661.00,54.32
660.00,54.21
659.00,54.11
658.00,54.02
657.00,53.93
656.00,53.81
655.00,53.69
654.00,53.60
653.00,53.52
652.00,53.41
651.00,53.31
650.00,53.24
649.00,53.16
648.00,53.04
647.00,52.93
646.00,52.85
645.00,52.77
644.00,52.66
643.00,52.56
642.00,52.51
641.00,52.44
640.00,52.34
639.00,52.24
638.00,52.19
637.00,52.12
636.00,52.00
635.00,51.89
634.00,51.82
633.00,51.75
632.00,51.64
631.00,51.55
630.00,51.51
629.00,51.47
628.00,51.37
627.00,51.29
626.00,51.26
625.00,51.21
624.00,51.09
623.00,50.99
622.00,50.96
621.00,50.92
620.00,50.81
619.00,50.73
618.00,50.72
617.00,50.70
616.00,50.59
615.00,50.50
614.00,50.48
613.00,50.43
612.00,50.30
611.00,50.20
610.00,50.19
609.00,50.17
608.00,50.07
607.00,49.99
606.00,49.99
605.00,49.96
604.00,49.82
603.00,49.66
602.00,49.53
601.00,49.39
600.00,49.27
599.00,49.30
598.00,49.48
597.00,49.59
596.00,49.54
595.00,49.50
594.00,49.58
593.00,49.64
592.00,49.56
591.00,49.48
590.00,49.51
589.00,49.53
588.00,49.44
587.00,49.40
586.00,49.49
585.00,49.53
584.00,49.40
583.00,49.30
582.00,49.36
581.00,49.38
580.00,49.19
579.00,49.05
578.00,49.12
577.00,49.16
576.00,48.99
575.00,48.91
574.00,49.07
573.00,49.18
572.00,49.04
571.00,48.94
570.00,49.07
569.00,49.13
568.00,48.92
567.00,48.75
566.00,48.85
565.00,48.90
564.00,48.74
563.00,48.64
562.00,48.79
561.00,48.86
560.00,48.70
559.00,48.66
558.00,48.92
557.00,49.10
556.00,48.95
555.00,48.80
554.00,48.90
553.00,48.94
552.00,48.69
551.00,48.52
550.00,48.69
549.00,48.79
548.00,48.55
547.00,48.39
546.00,48.63
545.00,48.80
544.00,48.59
543.00,48.45
542.00,48.71
541.00,48.85
540.00,48.52
539.00,48.30
538.00,48.62
537.00,48.88
536.00,48.61
535.00,48.44
534.00,48.88
533.00,49.20
532.00,48.82
531.00,48.50
530.00,48.92
529.00,49.22
528.00,48.61
527.00,48.11
526.00,48.81
525.00,49.38
524.00,48.64
523.00,48.16
522.00,49.37
521.00,50.28
520.00,49.21
519.00,48.19
518.00,49.50
517.00,49.93
516.00,46.75
515.00,44.01
514.00,46.94
513.00,49.91
512.00,47.59
511.00,45.54
510.00,50.68
509.00,51.38
508.00,40.52
507.00,6.75
506.00,37.00
505.00,35.60
504.00,57.72
503.00,246.15
502.00,51.30
501.00,47.48
500.00,80.69
499.00,144.62
498.00,78.95
497.00,78.83
496.00,79.69
495.00,104.70
494.00,45.84
493.00,30.95
492.00,122.63
491.00,95.30
490.00,71.46
489.00,86.12
488.00,54.78
487.00,51.49
486.00,261.85
485.00,160.67
484.00,83.88
483.00,34.47
482.00,71.95
481.00,149.17
480.00,133.57
479.00,79.91
478.00,92.85
477.00,70.18
476.00,69.38
475.00,58.83
474.00,68.60
473.00,141.65
472.00,63.56
471.00,42.92
470.00,89.31
469.00,75.87
468.00,89.57
467.00,96.08
466.00,77.44
465.00,63.60
464.00,98.78
463.00,79.86
462.00,92.24
461.00,87.04
460.00,143.64
459.00,44.72
458.00,234.48
457.00,160.84
456.00,80.00
455.00,32.37
454.00,47.40
453.00,208.07
452.00,97.88
451.00,34.50
450.00,79.28
449.00,95.71
448.00,75.96
447.00,62.76
446.00,64.06
445.00,63.57
444.00,57.59
443.00,63.17
442.00,76.98
441.00,88.40
440.00,37.67
439.00,36.57
438.00,129.55
437.00,102.47
436.00,69.12
435.00,67.23
434.00,170.12
433.00,92.48
432.00,93.78
431.00,70.59
430.00,88.50
429.00,131.45
428.00,197.12
427.00,47.17
426.00,103.89
425.00,217.07
424.00,102.32
423.00,49.11
422.00,72.99
421.00,118.58
420.00,71.68
419.00,73.37
418.00,72.25
417.00,56.42
416.00,114.07
415.00,121.90
414.00,86.95
413.00,62.80
412.00,83.48
411.00,91.52
410.00,45.47
409.00,39.15
408.00,199.03
407.00,101.36
406.00,168.29
405.00,106.29
404.00,54.94
403.00,49.58
402.00,82.91
401.00,101.40
400.00,98.06
