Created as New Dataset,Sample 002 By FTIR User 2.0 Date Friday, March 01 2024
cm-1,%T
4000.00,93.46
3999.00,93.47
3998.00,93.47
3997.00,93.47
3996.00,93.46
3995.00,93.46
3994.00,93.46
3993.00,93.46
3992.00,93.46
3991.00,93.46
3990.00,93.46
3989.00,93.47
3988.00,93.47
3987.00,93.48
3986.00,93.48
3985.00,93.48
3984.00,93.49
3983.00,93.49
3982.00,93.49
3981.00,93.49
3980.00,93.49
3979.00,93.48
3978.00,93.48
3977.00,93.48
3976.00,93.48
3975.00,93.49
3974.00,93.50
3973.00,93.50
3972.00,93.51
3971.00,93.51
3970.00,93.52
3969.00,93.52
3968.00,93.53
3967.00,93.53
3966.00,93.53
3965.00,93.52
3964.00,93.51
3963.00,93.52
3962.00,93.52
3961.00,93.53
3960.00,93.53
3959.00,93.53
3958.00,93.53
3957.00,93.54
3956.00,93.55
3955.00,93.55
3954.00,93.55
3953.00,93.54
3952.00,93.53
3951.00,93.53
3950.00,93.53
3949.00,93.54
3948.00,93.54
3947.00,93.53
3946.00,93.53
3945.00,93.52
3944.00,93.53
3943.00,93.56
3942.00,93.59
3941.00,93.60
3940.00,93.59
3939.00,93.59
3938.00,93.58
3937.00,93.58
3936.00,93.57
3935.00,93.56
3934.00,93.55
3933.00,93.55
3932.00,93.57
3931.00,93.58
3930.00,93.59
3929.00,93.59
3928.00,93.58
3927.00,93.57
3926.00,93.57
3925.00,93.59
3924.00,93.61
3923.00,93.62
3922.00,93.61
3921.00,93.60
3920.00,93.58
3919.00,93.58
3918.00,93.59
3917.00,93.61
3916.00,93.63
3915.00,93.64
3914.00,93.65
3913.00,93.66
3912.00,93.66
3911.00,93.67
3910.00,93.68
3909.00,93.68
3908.00,93.67
3907.00,93.65
3906.00,93.64
3905.00,93.62
3904.00,93.61
3903.00,93.59
3902.00,93.57
3901.00,93.55
3900.00,93.55
3899.00,93.57
3898.00,93.59
3897.00,93.60
3896.00,93.60
3895.00,93.60
3894.00,93.60
3893.00,93.62
3892.00,93.65
3891.00,93.68
3890.00,93.69
3889.00,93.67
3888.00,93.65
3887.00,93.62
3886.00,93.61
3885.00,93.63
3884.00,93.65
3883.00,93.65
3882.00,93.65
3881.00,93.67
3880.00,93.70
3879.00,93.72
3878.00,93.71
3877.00,93.69
3876.00,93.67
3875.00,93.67
3874.00,93.69
3873.00,93.70
3872.00,93.69
3871.00,93.66
3870.00,93.65
3869.00,93.64
3868.00,93.64
3867.00,93.61
3866.00,93.58
3865.00,93.58
3864.00,93.62
3863.00,93.67
3862.00,93.69
3861.00,93.69
3860.00,93.68
3859.00,93.68
3858.00,93.69
3857.00,93.70
3856.00,93.70
3855.00,93.68
3854.00,93.65
3853.00,93.64
3852.00,93.64
3851.00,93.65
3850.00,93.66
3849.00,93.67
3848.00,93.69
3847.00,93.70
3846.00,93.72
3845.00,93.74
3844.00,93.75
3843.00,93.76
3842.00,93.76
3841.00,93.74
3840.00,93.73
3839.00,93.72
3838.00,93.72
3837.00,93.71
3836.00,93.70
3835.00,93.70
3834.00,93.70
3833.00,93.71
3832.00,93.73
3831.00,93.74
3830.00,93.76
3829.00,93.77
3828.00,93.78
3827.00,93.79
3826.00,93.80
3825.00,93.80
3824.00,93.78
3823.00,93.73
3822.00,93.70
3821.00,93.70
3820.00,93.72
3819.00,93.73
3818.00,93.73
3817.00,93.73
3816.00,93.74
3815.00,93.78
3814.00,93.82
3813.00,93.83
3812.00,93.84
3811.00,93.84
3810.00,93.85
3809.00,93.85
3808.00,93.84
3807.00,93.83
3806.00,93.82
3805.00,93.82
3804.00,93.80
3803.00,93.77
3802.00,93.76
3801.00,93.77
3800.00,93.78
3799.00,93.78
3798.00,93.78
3797.00,93.78
3796.00,93.81
3795.00,93.84
3794.00,93.86
3793.00,93.87
3792.00,93.88
3791.00,93.90
3790.00,93.92
3789.00,93.93
3788.00,93.92
3787.00,93.92
3786.00,93.92
3785.00,93.92
3784.00,93.92
3783.00,93.91
3782.00,93.90
3781.00,93.89
3780.00,93.89
3779.00,93.90
3778.00,93.91
3777.00,93.91
3776.00,93.90
3775.00,93.89
3774.00,93.89
3773.00,93.89
3772.00,93.88
3771.00,93.88
3770.00,93.87
3769.00,93.86
3768.00,93.85
3767.00,93.84
3766.00,93.83
3765.00,93.83
3764.00,93.83
3763.00,93.83
3762.00,93.82
3761.00,93.80
3760.00,93.79
3759.00,93.80
3758.00,93.80
3757.00,93.79
3756.00,93.77
3755.00,93.74
3754.00,93.70
3753.00,93.65
3752.00,93.61
3751.00,93.58
3750.00,93.54
3749.00,93.51
3748.00,93.49
3747.00,93.50
3746.00,93.50
3745.00,93.52
3744.00,93.54
3743.00,93.56
3742.00,93.57
3741.00,93.56
3740.00,93.55
3739.00,93.53
3738.00,93.51
3737.00,93.51
3736.00,93.53
3735.00,93.58
3734.00,93.61
3733.00,93.60
3732.00,93.56
3731.00,93.53
3730.00,93.52
3729.00,93.53
3728.00,93.52
3727.00,93.52
3726.00,93.53
3725.00,93.54
3724.00,93.55
3723.00,93.55
3722.00,93.55
3721.00,93.55
3720.00,93.55
3719.00,93.55
3718.00,93.54
3717.00,93.53
3716.00,93.51
3715.00,93.48
3714.00,93.44
3713.00,93.40
3712.00,93.37
3711.00,93.36
3710.00,93.35
3709.00,93.32
3708.00,93.29
3707.00,93.28
3706.00,93.27
3705.00,93.26
3704.00,93.25
3703.00,93.24
3702.00,93.23
3701.00,93.20
3700.00,93.17
3699.00,93.12
3698.00,93.07
3697.00,93.02
3696.00,92.98
3695.00,92.95
3694.00,92.90
3693.00,92.84
3692.00,92.77
3691.00,92.71
3690.00,92.65
3689.00,92.57
3688.00,92.49
3687.00,92.41
3686.00,92.35
3685.00,92.30
3684.00,92.25
3683.00,92.20
3682.00,92.14
3681.00,92.08
3680.00,92.01
3679.00,91.94
3678.00,91.85
3677.00,91.73
3676.00,91.59
3675.00,91.47
3674.00,91.36
3673.00,91.26
3672.00,91.14
3671.00,91.01
3670.00,90.92
3669.00,90.85
3668.00,90.79
3667.00,90.72
3666.00,90.64
3665.00,90.56
3664.00,90.48
3663.00,90.39
3662.00,90.29
3661.00,90.18
3660.00,90.07
3659.00,89.96
3658.00,89.84
3657.00,89.71
3656.00,89.58
3655.00,89.46
3654.00,89.36
3653.00,89.25
3652.00,89.12
3651.00,88.96
3650.00,88.80
3649.00,88.66
3648.00,88.54
3647.00,88.44
3646.00,88.34
3645.00,88.25
3644.00,88.17
3643.00,88.09
3642.00,88.02
3641.00,87.95
3640.00,87.87
3639.00,87.78
3638.00,87.68
3637.00,87.57
3636.00,87.46
3635.00,87.35
3634.00,87.25
3633.00,87.15
3632.00,87.05
3631.00,86.93
3630.00,86.78
3629.00,86.62
3628.00,86.51
3627.00,86.41
3626.00,86.34
3625.00,86.26
3624.00,86.18
3623.00,86.09
3622.00,86.01
3621.00,85.91
3620.00,85.82
3619.00,85.72
3618.00,85.62
3617.00,85.51
3616.00,85.39
3615.00,85.28
3614.00,85.18
3613.00,85.10
3612.00,85.01
3611.00,84.91
3610.00,84.80
3609.00,84.69
3608.00,84.60
3607.00,84.53
3606.00,84.46
3605.00,84.37
3604.00,84.28
3603.00,84.18
3602.00,84.08
3601.00,83.99
3600.00,83.89
3599.00,83.79
3598.00,83.69
3597.00,83.59
3596.00,83.49
3595.00,83.39
3594.00,83.29
3593.00,83.18
3592.00,83.08
3591.00,82.98
3590.00,82.86
3589.00,82.73
3588.00,82.60
3587.00,82.49
3586.00,82.38
3585.00,82.28
3584.00,82.18
3583.00,82.09
3582.00,82.00
3581.00,81.92
3580.00,81.83
3579.00,81.75
3578.00,81.65
3577.00,81.55
3576.00,81.44
3575.00,81.33
3574.00,81.21
3573.00,81.10
3572.00,80.98
3571.00,80.86
3570.00,80.73
3569.00,80.59
3568.00,80.45
3567.00,80.32
3566.00,80.20
3565.00,80.09
3564.00,79.96
3563.00,79.84
3562.00,79.72
3561.00,79.62
3560.00,79.53
3559.00,79.44
3558.00,79.34
3557.00,79.24
3556.00,79.12
3555.00,79.00
3554.00,78.87
3553.00,78.73
3552.00,78.60
3551.00,78.48
3550.00,78.35
3549.00,78.22
3548.00,78.06
3547.00,77.90
3546.00,77.74
3545.00,77.61
3544.00,77.51
3543.00,77.42
3542.00,77.34
3541.00,77.25
3540.00,77.15
3539.00,77.03
3538.00,76.89
3537.00,76.76
3536.00,76.63
3535.00,76.52
3534.00,76.41
3533.00,76.31
3532.00,76.19
3531.00,76.06
3530.00,75.93
3529.00,75.79
3528.00,75.65
3527.00,75.50
3526.00,75.34
3525.00,75.19
3524.00,75.06
3523.00,74.95
3522.00,74.86
3521.00,74.78
3520.00,74.68
3519.00,74.56
3518.00,74.43
3517.00,74.30
3516.00,74.17
3515.00,74.03
3514.00,73.90
3513.00,73.78
3512.00,73.66
3511.00,73.55
3510.00,73.43
3509.00,73.31
3508.00,73.19
3507.00,73.06
3506.00,72.91
3505.00,72.75
3504.00,72.59
3503.00,72.44
3502.00,72.31
3501.00,72.21
3500.00,72.10
3499.00,71.98
3498.00,71.85
3497.00,71.73
3496.00,71.61
3495.00,71.50
3494.00,71.39
3493.00,71.28
3492.00,71.17
3491.00,71.05
3490.00,70.92
3489.00,70.78
3488.00,70.64
3487.00,70.51
3486.00,70.39
3485.00,70.29
3484.00,70.17
3483.00,70.04
3482.00,69.89
3481.00,69.75
3480.00,69.61
3479.00,69.51
3478.00,69.41
3477.00,69.31
3476.00,69.20
3475.00,69.09
3474.00,68.97
3473.00,68.83
3472.00,68.69
3471.00,68.52
3470.00,68.35
3469.00,68.19
3468.00,68.06
3467.00,67.95
3466.00,67.86
3465.00,67.78
3464.00,67.68
3463.00,67.57
3462.00,67.43
3461.00,67.30
3460.00,67.17
3459.00,67.06
3458.00,66.97
3457.00,66.87
3456.00,66.76
3455.00,66.64
3454.00,66.52
3453.00,66.40
3452.00,66.28
3451.00,66.16
3450.00,66.03
3449.00,65.89
3448.00,65.75
3447.00,65.62
3446.00,65.50
3445.00,65.39
3444.00,65.28
3443.00,65.17
3442.00,65.04
3441.00,64.91
3440.00,64.77
3439.00,64.61
3438.00,64.45
3437.00,64.29
3436.00,64.16
3435.00,64.05
3434.00,63.95
3433.00,63.86
3432.00,63.75
3431.00,63.64
3430.00,63.52
3429.00,63.42
3428.00,63.33
3427.00,63.24
3426.00,63.15
3425.00,63.05
3424.00,62.94
3423.00,62.82
3422.00,62.70
3421.00,62.58
3420.00,62.48
3419.00,62.38
3418.00,62.29
3417.00,62.18
3416.00,62.06
3415.00,61.93
3414.00,61.80
3413.00,61.69
3412.00,61.58
3411.00,61.49
3410.00,61.40
3409.00,61.31
3408.00,61.23
3407.00,61.15
3406.00,61.06
3405.00,60.96
3404.00,60.83
3403.00,60.70
3402.00,60.56
3401.00,60.46
3400.00,60.38
3399.00,60.33
3398.00,60.29
3397.00,60.24
3396.00,60.16
3395.00,60.07
3394.00,59.97
3393.00,59.87
3392.00,59.78
3391.00,59.73
3390.00,59.70
3389.00,59.68
3388.00,59.65
3387.00,59.60
3386.00,59.54
3385.00,59.47
3384.00,59.41
3383.00,59.34
3382.00,59.26
3381.00,59.19
3380.00,59.13
3379.00,59.07
3378.00,59.01
3377.00,58.96
3376.00,58.91
3375.00,58.86
3374.00,58.82
3373.00,58.75
3372.00,58.68
3371.00,58.59
3370.00,58.51
3369.00,58.45
3368.00,58.42
3367.00,58.40
3366.00,58.40
3365.00,58.40
3364.00,58.39
3363.00,58.36
3362.00,58.33
3361.00,58.29
3360.00,58.26
3359.00,58.25
3358.00,58.24
3357.00,58.23
3356.00,58.21
3355.00,58.18
3354.00,58.14
3353.00,58.09
3352.00,58.04
3351.00,58.01
3350.00,58.00
3349.00,58.00
3348.00,58.01
3347.00,58.01
3346.00,57.99
3345.00,57.96
3344.00,57.94
3343.00,57.91
3342.00,57.89
3341.00,57.87
3340.00,57.84
3339.00,57.82
3338.00,57.81
3337.00,57.82
3336.00,57.84
3335.00,57.87
3334.00,57.88
3333.00,57.88
3332.00,57.88
3331.00,57.87
3330.00,57.86
3329.00,57.84
3328.00,57.82
3327.00,57.79
3326.00,57.78
3325.00,57.78
3324.00,57.79
3323.00,57.81
3322.00,57.83
3321.00,57.84
3320.00,57.84
3319.00,57.84
3318.00,57.84
3317.00,57.85
3316.00,57.85
3315.00,57.85
3314.00,57.84
3313.00,57.83
3312.00,57.82
3311.00,57.80
3310.00,57.77
3309.00,57.74
3308.00,57.73
3307.00,57.73
3306.00,57.74
3305.00,57.75
3304.00,57.78
3303.00,57.81
3302.00,57.84
3301.00,57.85
3300.00,57.86
3299.00,57.86
3298.00,57.85
3297.00,57.84
3296.00,57.83
3295.00,57.82
3294.00,57.82
3293.00,57.83
3292.00,57.84
3291.00,57.87
3290.00,57.89
3289.00,57.92
3288.00,57.94
3287.00,57.95
3286.00,57.96
3285.00,57.97
3284.00,57.99
3283.00,58.00
3282.00,58.00
3281.00,58.01
3280.00,58.02
3279.00,58.02
3278.00,58.02
3277.00,58.02
3276.00,58.02
3275.00,58.02
3274.00,58.02
3273.00,58.02
3272.00,58.02
3271.00,58.04
3270.00,58.06
3269.00,58.10
3268.00,58.15
3267.00,58.19
3266.00,58.23
3265.00,58.26
3264.00,58.28
3263.00,58.30
3262.00,58.32
3261.00,58.34
3260.00,58.36
3259.00,58.37
3258.00,58.38
3257.00,58.40
3256.00,58.42
3255.00,58.45
3254.00,58.49
3253.00,58.54
3252.00,58.58
3251.00,58.61
3250.00,58.63
3249.00,58.64
3248.00,58.66
3247.00,58.68
3246.00,58.73
3245.00,58.79
3244.00,58.86
3243.00,58.92
3242.00,58.97
3241.00,59.02
3240.00,59.07
3239.00,59.12
3238.00,59.17
3237.00,59.21
3236.00,59.24
3235.00,59.27
3234.00,59.31
3233.00,59.37
3232.00,59.46
3231.00,59.55
3230.00,59.64
3229.00,59.72
3228.00,59.80
3227.00,59.88
3226.00,59.95
3225.00,60.04
3224.00,60.12
3223.00,60.19
3222.00,60.27
3221.00,60.34
3220.00,60.42
3219.00,60.50
3218.00,60.59
3217.00,60.69
3216.00,60.78
3215.00,60.88
3214.00,60.97
3213.00,61.08
3212.00,61.19
3211.00,61.29
3210.00,61.40
3209.00,61.50
3208.00,61.61
3207.00,61.72
3206.00,61.83
3205.00,61.94
3204.00,62.06
3203.00,62.19
3202.00,62.31
3201.00,62.43
3200.00,62.56
3199.00,62.68
3198.00,62.81
3197.00,62.93
3196.00,63.06
3195.00,63.19
3194.00,63.32
3193.00,63.46
3192.00,63.60
3191.00,63.73
3190.00,63.87
3189.00,64.01
3188.00,64.15
3187.00,64.30
3186.00,64.44
3185.00,64.59
3184.00,64.74
3183.00,64.89
3182.00,65.04
3181.00,65.19
3180.00,65.35
3179.00,65.50
3178.00,65.65
3177.00,65.81
3176.00,65.98
3175.00,66.14
3174.00,66.29
3173.00,66.45
3172.00,66.61
3171.00,66.77
3170.00,66.92
3169.00,67.09
3168.00,67.25
3167.00,67.41
3166.00,67.57
3165.00,67.73
3164.00,67.90
3163.00,68.07
3162.00,68.24
3161.00,68.41
3160.00,68.58
3159.00,68.74
3158.00,68.90
3157.00,69.06
3156.00,69.21
3155.00,69.35
3154.00,69.49
3153.00,69.65
3152.00,69.82
3151.00,70.01
3150.00,70.21
3149.00,70.40
3148.00,70.59
3147.00,70.77
3146.00,70.94
3145.00,71.11
3144.00,71.28
3143.00,71.45
3142.00,71.60
3141.00,71.75
3140.00,71.90
3139.00,72.06
3138.00,72.24
3137.00,72.43
3136.00,72.62
3135.00,72.81
3134.00,72.98
3133.00,73.14
3132.00,73.30
3131.00,73.46
3130.00,73.63
3129.00,73.80
3128.00,73.97
3127.00,74.15
3126.00,74.31
3125.00,74.47
3124.00,74.63
3123.00,74.77
3122.00,74.91
3121.00,75.06
3120.00,75.21
3119.00,75.36
3118.00,75.52
3117.00,75.68
3116.00,75.85
3115.00,76.03
3114.00,76.21
3113.00,76.38
3112.00,76.54
3111.00,76.70
3110.00,76.84
3109.00,76.99
3108.00,77.15
3107.00,77.32
3106.00,77.48
3105.00,77.64
3104.00,77.79
3103.00,77.93
3102.00,78.07
3101.00,78.21
3100.00,78.35
3099.00,78.50
3098.00,78.66
3097.00,78.82
3096.00,78.98
3095.00,79.12
3094.00,79.26
3093.00,79.40
3092.00,79.53
3091.00,79.65
3090.00,79.78
3089.00,79.92
3088.00,80.06
3087.00,80.20
3086.00,80.33
3085.00,80.46
3084.00,80.60
3083.00,80.73
3082.00,80.86
3081.00,80.99
3080.00,81.13
3079.00,81.26
3078.00,81.40
3077.00,81.55
3076.00,81.70
3075.00,81.85
3074.00,81.98
3073.00,82.12
3072.00,82.24
3071.00,82.36
3070.00,82.48
3069.00,82.60
3068.00,82.71
3067.00,82.83
3066.00,82.96
3065.00,83.09
3064.00,83.23
3063.00,83.36
3062.00,83.49
3061.00,83.61
3060.00,83.73
3059.00,83.85
3058.00,83.95
3057.00,84.06
3056.00,84.18
3055.00,84.30
3054.00,84.42
3053.00,84.54
3052.00,84.65
3051.00,84.76
3050.00,84.86
3049.00,84.98
3048.00,85.10
3047.00,85.21
3046.00,85.31
3045.00,85.42
3044.00,85.52
3043.00,85.63
3042.00,85.74
3041.00,85.84
3040.00,85.95
3039.00,86.05
3038.00,86.15
3037.00,86.25
3036.00,86.35
3035.00,86.44
3034.00,86.53
3033.00,86.62
3032.00,86.72
3031.00,86.82
3030.00,86.93
3029.00,87.03
3028.00,87.13
3027.00,87.22
3026.00,87.31
3025.00,87.39
3024.00,87.48
3023.00,87.57
3022.00,87.66
3021.00,87.75
3020.00,87.84
3019.00,87.92
3018.00,88.00
3017.00,88.08
3016.00,88.16
3015.00,88.23
3014.00,88.30
3013.00,88.37
3012.00,88.45
3011.00,88.53
3010.00,88.61
3009.00,88.69
3008.00,88.77
3007.00,88.84
3006.00,88.90
3005.00,88.97
3004.00,89.04
3003.00,89.10
3002.00,89.16
3001.00,89.23
3000.00,89.29
2999.00,89.34
2998.00,89.39
2997.00,89.44
2996.00,89.49
2995.00,89.53
2994.00,89.58
2993.00,89.62
2992.00,89.66
2991.00,89.69
2990.00,89.73
2989.00,89.77
2988.00,89.80
2987.00,89.83
2986.00,89.86
2985.00,89.89
2984.00,89.92
2983.00,89.95
2982.00,89.97
2981.00,90.01
2980.00,90.04
2979.00,90.09
2978.00,90.14
2977.00,90.19
2976.00,90.25
2975.00,90.31
2974.00,90.37
2973.00,90.44
2972.00,90.51
2971.00,90.58
2970.00,90.64
2969.00,90.71
2968.00,90.78
2967.00,90.83
2966.00,90.89
2965.00,90.95
2964.00,91.01
2963.00,91.06
2962.00,91.11
2961.00,91.16
2960.00,91.21
2959.00,91.26
2958.00,91.31
2957.00,91.35
2956.00,91.40
2955.00,91.44
2954.00,91.48
2953.00,91.53
2952.00,91.57
2951.00,91.61
2950.00,91.66
2949.00,91.70
2948.00,91.74
2947.00,91.78
2946.00,91.81
2945.00,91.85
2944.00,91.89
2943.00,91.93
2942.00,91.96
2941.00,92.00
2940.00,92.04
2939.00,92.09
2938.00,92.13
2937.00,92.17
2936.00,92.22
2935.00,92.27
2934.00,92.32
2933.00,92.38
2932.00,92.43
2931.00,92.48
2930.00,92.53
2929.00,92.58
2928.00,92.63
2927.00,92.67
2926.00,92.72
2925.00,92.76
2924.00,92.81
2923.00,92.86
2922.00,92.90
2921.00,92.95
2920.00,92.99
2919.00,93.03
2918.00,93.07
2917.00,93.11
2916.00,93.15
2915.00,93.19
2914.00,93.23
2913.00,93.26
2912.00,93.30
2911.00,93.33
2910.00,93.36
2909.00,93.39
2908.00,93.42
2907.00,93.45
2906.00,93.48
2905.00,93.50
2904.00,93.53
2903.00,93.55
2902.00,93.57
2901.00,93.59
2900.00,93.62
2899.00,93.64
2898.00,93.67
2897.00,93.69
2896.00,93.71
2895.00,93.73
2894.00,93.75
2893.00,93.77
2892.00,93.79
2891.00,93.81
2890.00,93.84
2889.00,93.86
2888.00,93.89
2887.00,93.92
2886.00,93.94
2885.00,93.97
2884.00,94.00
2883.00,94.03
2882.00,94.06
2881.00,94.10
2880.00,94.13
2879.00,94.17
2878.00,94.20
2877.00,94.24
2876.00,94.28
2875.00,94.31
2874.00,94.34
2873.00,94.37
2872.00,94.39
2871.00,94.42
2870.00,94.45
2869.00,94.48
2868.00,94.51
2867.00,94.55
2866.00,94.58
2865.00,94.61
2864.00,94.63
2863.00,94.66
2862.00,94.68
2861.00,94.71
2860.00,94.74
2859.00,94.76
2858.00,94.79
2857.00,94.81
2856.00,94.83
2855.00,94.85
2854.00,94.87
2853.00,94.89
2852.00,94.92
2851.00,94.94
2850.00,94.97
2849.00,94.99
2848.00,95.01
2847.00,95.03
2846.00,95.05
2845.00,95.07
2844.00,95.09
2843.00,95.12
2842.00,95.14
2841.00,95.17
2840.00,95.19
2839.00,95.22
2838.00,95.23
2837.00,95.25
2836.00,95.26
2835.00,95.28
2834.00,95.30
2833.00,95.32
2832.00,95.33
2831.00,95.35
2830.00,95.37
2829.00,95.39
2828.00,95.41
2827.00,95.43
2826.00,95.45
2825.00,95.46
2824.00,95.48
2823.00,95.49
2822.00,95.51
2821.00,95.52
2820.00,95.54
2819.00,95.56
2818.00,95.57
2817.00,95.59
2816.00,95.61
2815.00,95.62
2814.00,95.64
2813.00,95.66
2812.00,95.68
2811.00,95.69
2810.00,95.70
2809.00,95.72
2808.00,95.73
2807.00,95.74
2806.00,95.75
2805.00,95.77
2804.00,95.78
2803.00,95.79
2802.00,95.81
2801.00,95.82
2800.00,95.84
2799.00,95.85
2798.00,95.87
2797.00,95.88
2796.00,95.89
2795.00,95.90
2794.00,95.91
2793.00,95.93
2792.00,95.94
2791.00,95.96
2790.00,95.97
2789.00,95.98
2788.00,95.99
2787.00,96.00
2786.00,96.01
2785.00,96.02
2784.00,96.03
2783.00,96.04
2782.00,96.05
2781.00,96.06
2780.00,96.07
2779.00,96.08
2778.00,96.09
2777.00,96.11
2776.00,96.12
2775.00,96.13
2774.00,96.14
2773.00,96.15
2772.00,96.16
2771.00,96.16
2770.00,96.17
2769.00,96.18
2768.00,96.19
2767.00,96.20
2766.00,96.21
2765.00,96.22
2764.00,96.23
2763.00,96.24
2762.00,96.25
2761.00,96.26
2760.00,96.26
2759.00,96.27
2758.00,96.28
2757.00,96.29
2756.00,96.30
2755.00,96.31
2754.00,96.31
2753.00,96.32
2752.00,96.33
2751.00,96.34
2750.00,96.35
2749.00,96.36
2748.00,96.37
2747.00,96.38
2746.00,96.38
2745.00,96.39
2744.00,96.40
2743.00,96.40
2742.00,96.41
2741.00,96.42
2740.00,96.42
2739.00,96.43
2738.00,96.43
2737.00,96.44
2736.00,96.45
2735.00,96.45
2734.00,96.46
2733.00,96.47
2732.00,96.48
2731.00,96.48
2730.00,96.49
2729.00,96.50
2728.00,96.51
2727.00,96.52
2726.00,96.52
2725.00,96.53
2724.00,96.54
2723.00,96.54
2722.00,96.55
2721.00,96.55
2720.00,96.56
2719.00,96.56
2718.00,96.57
2717.00,96.58
2716.00,96.58
2715.00,96.59
2714.00,96.59
2713.00,96.60
2712.00,96.60
2711.00,96.61
2710.00,96.61
2709.00,96.62
2708.00,96.62
2707.00,96.63
2706.00,96.63
2705.00,96.64
2704.00,96.65
2703.00,96.66
2702.00,96.66
2701.00,96.66
2700.00,96.67
2699.00,96.67
2698.00,96.68
2697.00,96.68
2696.00,96.69
2695.00,96.69
2694.00,96.70
2693.00,96.70
2692.00,96.70
2691.00,96.71
2690.00,96.71
2689.00,96.72
2688.00,96.72
2687.00,96.73
2686.00,96.73
2685.00,96.73
2684.00,96.74
2683.00,96.74
2682.00,96.75
2681.00,96.75
2680.00,96.75
2679.00,96.75
2678.00,96.75
2677.00,96.76
2676.00,96.76
2675.00,96.77
2674.00,96.77
2673.00,96.77
2672.00,96.78
2671.00,96.78
2670.00,96.78
2669.00,96.79
2668.00,96.79
2667.00,96.79
2666.00,96.79
2665.00,96.80
2664.00,96.80
2663.00,96.81
2662.00,96.81
2661.00,96.82
2660.00,96.82
2659.00,96.83
2658.00,96.83
2657.00,96.83
2656.00,96.84
2655.00,96.84
2654.00,96.85
2653.00,96.85
2652.00,96.86
2651.00,96.86
2650.00,96.86
2649.00,96.86
2648.00,96.87
2647.00,96.87
2646.00,96.87
2645.00,96.88
2644.00,96.88
2643.00,96.88
2642.00,96.89
2641.00,96.89
2640.00,96.89
2639.00,96.90
2638.00,96.90
2637.00,96.90
2636.00,96.90
2635.00,96.91
2634.00,96.91
2633.00,96.91
2632.00,96.91
2631.00,96.91
2630.00,96.91
2629.00,96.91
2628.00,96.91
2627.00,96.92
2626.00,96.92
2625.00,96.92
2624.00,96.93
2623.00,96.93
2622.00,96.93
2621.00,96.93
2620.00,96.94
2619.00,96.94
2618.00,96.93
2617.00,96.94
2616.00,96.94
2615.00,96.95
2614.00,96.95
2613.00,96.95
2612.00,96.95
2611.00,96.95
2610.00,96.94
2609.00,96.95
2608.00,96.95
2607.00,96.96
2606.00,96.96
2605.00,96.96
2604.00,96.96
2603.00,96.97
2602.00,96.97
2601.00,96.97
2600.00,96.97
2599.00,96.97
2598.00,96.97
2597.00,96.97
2596.00,96.97
2595.00,96.97
2594.00,96.97
2593.00,96.97
2592.00,96.97
2591.00,96.97
2590.00,96.97
2589.00,96.97
2588.00,96.98
2587.00,96.98
2586.00,96.98
2585.00,96.98
2584.00,96.98
2583.00,96.98
2582.00,96.98
2581.00,96.98
2580.00,96.99
2579.00,96.99
2578.00,96.99
2577.00,96.99
2576.00,96.99
2575.00,96.99
2574.00,96.99
2573.00,96.99
2572.00,96.99
2571.00,96.99
2570.00,96.99
2569.00,96.99
2568.00,96.99
2567.00,96.99
2566.00,96.99
2565.00,96.99
2564.00,96.99
2563.00,96.99
2562.00,96.99
2561.00,96.99
2560.00,96.99
2559.00,96.99
2558.00,96.99
2557.00,96.99
2556.00,96.99
2555.00,97.00
2554.00,96.99
2553.00,96.99
2552.00,96.99
2551.00,96.99
2550.00,96.99
2549.00,97.00
2548.00,97.00
2547.00,96.99
2546.00,96.99
2545.00,96.99
2544.00,96.98
2543.00,96.98
2542.00,96.98
2541.00,96.98
2540.00,96.98
2539.00,96.98
2538.00,96.98
2537.00,96.98
2536.00,96.98
2535.00,96.98
2534.00,96.98
2533.00,96.99
2532.00,96.99
2531.00,96.98
2530.00,96.98
2529.00,96.98
2528.00,96.98
2527.00,96.98
2526.00,96.97
2525.00,96.97
2524.00,96.97
2523.00,96.97
2522.00,96.96
2521.00,96.97
2520.00,96.97
2519.00,96.97
2518.00,96.96
2517.00,96.96
2516.00,96.97
2515.00,96.97
2514.00,96.97
2513.00,96.97
2512.00,96.96
2511.00,96.96
2510.00,96.96
2509.00,96.96
2508.00,96.96
2507.00,96.96
2506.00,96.96
2505.00,96.96
2504.00,96.96
2503.00,96.95
2502.00,96.95
2501.00,96.95
2500.00,96.95
2499.00,96.95
2498.00,96.95
2497.00,96.95
2496.00,96.96
2495.00,96.96
2494.00,96.95
2493.00,96.95
2492.00,96.95
2491.00,96.95
2490.00,96.95
2489.00,96.94
2488.00,96.94
2487.00,96.94
2486.00,96.94
2485.00,96.94
2484.00,96.94
2483.00,96.94
2482.00,96.94
2481.00,96.94
2480.00,96.93
2479.00,96.93
2478.00,96.93
2477.00,96.93
2476.00,96.93
2475.00,96.93
2474.00,96.92
2473.00,96.92
2472.00,96.92
2471.00,96.92
2470.00,96.92
2469.00,96.92
2468.00,96.92
2467.00,96.92
2466.00,96.92
2465.00,96.92
2464.00,96.92
2463.00,96.92
2462.00,96.92
2461.00,96.92
2460.00,96.92
2459.00,96.92
2458.00,96.91
2457.00,96.91
2456.00,96.91
2455.00,96.90
2454.00,96.90
2453.00,96.90
2452.00,96.90
2451.00,96.90
2450.00,96.90
2449.00,96.89
2448.00,96.89
2447.00,96.89
2446.00,96.88
2445.00,96.88
2444.00,96.88
2443.00,96.87
2442.00,96.87
2441.00,96.87
2440.00,96.87
2439.00,96.87
2438.00,96.87
2437.00,96.87
2436.00,96.86
2435.00,96.86
2434.00,96.86
2433.00,96.86
2432.00,96.86
2431.00,96.85
2430.00,96.85
2429.00,96.85
2428.00,96.85
2427.00,96.84
2426.00,96.84
2425.00,96.84
2424.00,96.84
2423.00,96.84
2422.00,96.84
2421.00,96.83
2420.00,96.83
2419.00,96.83
2418.00,96.83
2417.00,96.83
2416.00,96.83
2415.00,96.83
2414.00,96.82
2413.00,96.82
2412.00,96.81
2411.00,96.81
2410.00,96.80
2409.00,96.80
2408.00,96.80
2407.00,96.81
2406.00,96.80
2405.00,96.80
2404.00,96.80
2403.00,96.79
2402.00,96.79
2401.00,96.79
2400.00,96.79
2399.00,96.78
2398.00,96.78
2397.00,96.78
2396.00,96.78
2395.00,96.78
2394.00,96.77
2393.00,96.77
2392.00,96.76
2391.00,96.76
2390.00,96.75
2389.00,96.74
2388.00,96.72
2387.00,96.70
2386.00,96.68
2385.00,96.66
2384.00,96.64
2383.00,96.63
2382.00,96.62
2381.00,96.63
2380.00,96.65
2379.00,96.67
2378.00,96.70
2377.00,96.72
2376.00,96.75
2375.00,96.75
2374.00,96.74
2373.00,96.72
2372.00,96.70
2371.00,96.68
2370.00,96.65
2369.00,96.64
2368.00,96.63
2367.00,96.62
2366.00,96.62
2365.00,96.63
2364.00,96.65
2363.00,96.66
2362.00,96.66
2361.00,96.67
2360.00,96.66
2359.00,96.64
2358.00,96.61
2357.00,96.61
2356.00,96.60
2355.00,96.59
2354.00,96.56
2353.00,96.54
2352.00,96.54
2351.00,96.54
2350.00,96.56
2349.00,96.57
2348.00,96.57
2347.00,96.57
2346.00,96.56
2345.00,96.56
2344.00,96.57
2343.00,96.57
2342.00,96.56
2341.00,96.56
2340.00,96.57
2339.00,96.57
2338.00,96.56
2337.00,96.55
2336.00,96.54
2335.00,96.53
2334.00,96.51
2333.00,96.49
2332.00,96.48
2331.00,96.48
2330.00,96.48
2329.00,96.48
2328.00,96.47
2327.00,96.45
2326.00,96.43
2325.00,96.42
2324.00,96.41
2323.00,96.41
2322.00,96.42
2321.00,96.43
2320.00,96.43
2319.00,96.44
2318.00,96.43
2317.00,96.43
2316.00,96.42
2315.00,96.41
2314.00,96.40
2313.00,96.40
2312.00,96.39
2311.00,96.38
2310.00,96.38
2309.00,96.38
2308.00,96.38
2307.00,96.38
2306.00,96.37
2305.00,96.37
2304.00,96.37
2303.00,96.36
2302.00,96.35
2301.00,96.34
2300.00,96.33
2299.00,96.32
2298.00,96.32
2297.00,96.31
2296.00,96.31
2295.00,96.30
2294.00,96.30
2293.00,96.30
2292.00,96.30
2291.00,96.29
2290.00,96.28
2289.00,96.28
2288.00,96.28
2287.00,96.27
2286.00,96.27
2285.00,96.26
2284.00,96.25
2283.00,96.24
2282.00,96.24
2281.00,96.24
2280.00,96.24
2279.00,96.23
2278.00,96.22
2277.00,96.21
2276.00,96.21
2275.00,96.20
2274.00,96.19
2273.00,96.19
2272.00,96.18
2271.00,96.16
2270.00,96.15
2269.00,96.14
2268.00,96.13
2267.00,96.11
2266.00,96.10
2265.00,96.10
2264.00,96.09
2263.00,96.09
2262.00,96.08
2261.00,96.08
2260.00,96.07
2259.00,96.06
2258.00,96.05
2257.00,96.04
2256.00,96.03
2255.00,96.02
2254.00,96.01
2253.00,96.01
2252.00,96.00
2251.00,95.98
2250.00,95.97
2249.00,95.97
2248.00,95.97
2247.00,95.96
2246.00,95.96
2245.00,95.95
2244.00,95.95
2243.00,95.94
2242.00,95.94
2241.00,95.93
2240.00,95.92
2239.00,95.91
2238.00,95.89
2237.00,95.88
2236.00,95.87
2235.00,95.86
2234.00,95.85
2233.00,95.85
2232.00,95.84
2231.00,95.83
2230.00,95.82
2229.00,95.81
2228.00,95.80
2227.00,95.79
2226.00,95.79
2225.00,95.79
2224.00,95.78
2223.00,95.77
2222.00,95.76
2221.00,95.76
2220.00,95.76
2219.00,95.76
2218.00,95.75
2217.00,95.74
2216.00,95.73
2215.00,95.72
2214.00,95.70
2213.00,95.69
2212.00,95.68
2211.00,95.67
2210.00,95.66
2209.00,95.65
2208.00,95.65
2207.00,95.64
2206.00,95.63
2205.00,95.63
2204.00,95.62
2203.00,95.61
2202.00,95.60
2201.00,95.59
2200.00,95.58
2199.00,95.57
2198.00,95.56
2197.00,95.55
2196.00,95.55
2195.00,95.54
2194.00,95.53
2193.00,95.52
2192.00,95.52
2191.00,95.51
2190.00,95.50
2189.00,95.50
2188.00,95.50
2187.00,95.49
2186.00,95.48
2185.00,95.48
2184.00,95.47
2183.00,95.45
2182.00,95.43
2181.00,95.42
2180.00,95.41
2179.00,95.40
2178.00,95.40
2177.00,95.39
2176.00,95.39
2175.00,95.38
2174.00,95.38
2173.00,95.38
2172.00,95.38
2171.00,95.37
2170.00,95.37
2169.00,95.37
2168.00,95.37
2167.00,95.36
2166.00,95.35
2165.00,95.35
2164.00,95.35
2163.00,95.35
2162.00,95.34
2161.00,95.34
2160.00,95.33
2159.00,95.30
2158.00,95.28
2157.00,95.28
2156.00,95.29
2155.00,95.30
2154.00,95.30
2153.00,95.31
2152.00,95.32
2151.00,95.32
2150.00,95.31
2149.00,95.31
2148.00,95.30
2147.00,95.29
2146.00,95.28
2145.00,95.27
2144.00,95.27
2143.00,95.27
2142.00,95.27
2141.00,95.28
2140.00,95.28
2139.00,95.28
2138.00,95.28
2137.00,95.28
2136.00,95.28
2135.00,95.28
2134.00,95.28
2133.00,95.29
2132.00,95.31
2131.00,95.31
2130.00,95.32
2129.00,95.32
2128.00,95.33
2127.00,95.33
2126.00,95.33
2125.00,95.33
2124.00,95.34
2123.00,95.34
2122.00,95.34
2121.00,95.35
2120.00,95.36
2119.00,95.37
2118.00,95.37
2117.00,95.37
2116.00,95.36
2115.00,95.36
2114.00,95.36
2113.00,95.37
2112.00,95.37
2111.00,95.38
2110.00,95.38
2109.00,95.39
2108.00,95.39
2107.00,95.39
2106.00,95.39
2105.00,95.40
2104.00,95.40
2103.00,95.41
2102.00,95.41
2101.00,95.42
2100.00,95.42
2099.00,95.42
2098.00,95.43
2097.00,95.44
2096.00,95.44
2095.00,95.45
2094.00,95.44
2093.00,95.45
2092.00,95.45
2091.00,95.46
2090.00,95.47
2089.00,95.49
2088.00,95.49
2087.00,95.50
2086.00,95.50
2085.00,95.51
2084.00,95.52
2083.00,95.53
2082.00,95.53
2081.00,95.54
2080.00,95.54
2079.00,95.54
2078.00,95.55
2077.00,95.55
2076.00,95.56
2075.00,95.57
2074.00,95.57
2073.00,95.58
2072.00,95.58
2071.00,95.59
2070.00,95.59
2069.00,95.60
2068.00,95.61
2067.00,95.62
2066.00,95.63
2065.00,95.64
2064.00,95.65
2063.00,95.65
2062.00,95.65
2061.00,95.66
2060.00,95.68
2059.00,95.69
2058.00,95.70
2057.00,95.71
2056.00,95.72
2055.00,95.73
2054.00,95.73
2053.00,95.74
2052.00,95.76
2051.00,95.76
2050.00,95.77
2049.00,95.77
2048.00,95.77
2047.00,95.77
2046.00,95.77
2045.00,95.78
2044.00,95.79
2043.00,95.80
2042.00,95.81
2041.00,95.83
2040.00,95.84
2039.00,95.85
2038.00,95.86
2037.00,95.87
2036.00,95.89
2035.00,95.89
2034.00,95.89
2033.00,95.90
2032.00,95.91
2031.00,95.93
2030.00,95.94
2029.00,95.96
2028.00,95.97
2027.00,95.98
2026.00,95.98
2025.00,95.99
2024.00,95.99
2023.00,96.00
2022.00,96.01
2021.00,96.02
2020.00,96.03
2019.00,96.04
2018.00,96.05
2017.00,96.06
2016.00,96.07
2015.00,96.08
2014.00,96.10
2013.00,96.12
2012.00,96.14
2011.00,96.15
2010.00,96.16
2009.00,96.16
2008.00,96.16
2007.00,96.16
2006.00,96.16
2005.00,96.18
2004.00,96.20
2003.00,96.21
2002.00,96.23
2001.00,96.24
2000.00,96.26
1999.00,96.27
1998.00,96.28
1997.00,96.29
1996.00,96.30
1995.00,96.30
1994.00,96.31
1993.00,96.32
1992.00,96.33
1991.00,96.34
1990.00,96.34
1989.00,96.35
1988.00,96.36
1987.00,96.37
1986.00,96.39
1985.00,96.40
1984.00,96.41
1983.00,96.41
1982.00,96.43
1981.00,96.44
1980.00,96.45
1979.00,96.46
1978.00,96.47
1977.00,96.48
1976.00,96.48
1975.00,96.48
1974.00,96.49
1973.00,96.50
1972.00,96.52
1971.00,96.52
1970.00,96.53
1969.00,96.53
1968.00,96.53
1967.00,96.54
1966.00,96.56
1965.00,96.57
1964.00,96.58
1963.00,96.59
1962.00,96.59
1961.00,96.60
1960.00,96.61
1959.00,96.61
1958.00,96.62
1957.00,96.63
1956.00,96.65
1955.00,96.66
1954.00,96.67
1953.00,96.68
1952.00,96.69
1951.00,96.69
1950.00,96.70
1949.00,96.71
1948.00,96.71
1947.00,96.71
1946.00,96.72
1945.00,96.73
1944.00,96.73
1943.00,96.74
1942.00,96.75
1941.00,96.76
1940.00,96.76
1939.00,96.76
1938.00,96.77
1937.00,96.79
1936.00,96.80
1935.00,96.80
1934.00,96.81
1933.00,96.81
1932.00,96.82
1931.00,96.83
1930.00,96.83
1929.00,96.84
1928.00,96.84
1927.00,96.84
1926.00,96.83
1925.00,96.84
1924.00,96.84
1923.00,96.86
1922.00,96.87
1921.00,96.88
1920.00,96.88
1919.00,96.88
1918.00,96.88
1917.00,96.89
1916.00,96.89
1915.00,96.89
1914.00,96.90
1913.00,96.91
1912.00,96.91
1911.00,96.91
1910.00,96.91
1909.00,96.91
1908.00,96.92
1907.00,96.92
1906.00,96.93
1905.00,96.94
1904.00,96.94
1903.00,96.95
1902.00,96.95
1901.00,96.96
1900.00,96.96
1899.00,96.96
1898.00,96.96
1897.00,96.96
1896.00,96.97
1895.00,96.97
1894.00,96.97
1893.00,96.98
1892.00,96.98
1891.00,96.98
1890.00,96.99
1889.00,97.00
1888.00,97.00
1887.00,96.99
1886.00,96.98
1885.00,96.98
1884.00,96.99
1883.00,96.99
1882.00,97.00
1881.00,97.00
1880.00,97.00
1879.00,96.99
1878.00,96.99
1877.00,96.99
1876.00,96.99
1875.00,96.99
1874.00,96.99
1873.00,96.99
1872.00,96.98
1871.00,96.97
1870.00,96.96
1869.00,96.97
1868.00,96.98
1867.00,96.99
1866.00,96.99
1865.00,96.99
1864.00,96.99
1863.00,96.98
1862.00,96.98
1861.00,96.98
1860.00,96.98
1859.00,96.99
1858.00,96.99
1857.00,96.99
1856.00,96.99
1855.00,96.99
1854.00,96.99
1853.00,96.99
1852.00,96.99
1851.00,96.98
1850.00,96.97
1849.00,96.96
1848.00,96.95
1847.00,96.94
1846.00,96.92
1845.00,96.91
1844.00,96.90
1843.00,96.91
1842.00,96.93
1841.00,96.94
1840.00,96.94
1839.00,96.94
1838.00,96.94
1837.00,96.94
1836.00,96.94
1835.00,96.93
1834.00,96.93
1833.00,96.93
1832.00,96.93
1831.00,96.93
1830.00,96.94
1829.00,96.94
1828.00,96.94
1827.00,96.93
1826.00,96.94
1825.00,96.94
1824.00,96.93
1823.00,96.91
1822.00,96.89
1821.00,96.87
1820.00,96.87
1819.00,96.86
1818.00,96.86
1817.00,96.86
1816.00,96.85
1815.00,96.84
1814.00,96.83
1813.00,96.82
1812.00,96.81
1811.00,96.81
1810.00,96.81
1809.00,96.80
1808.00,96.79
1807.00,96.78
1806.00,96.77
1805.00,96.77
1804.00,96.77
1803.00,96.77
1802.00,96.77
1801.00,96.76
1800.00,96.74
1799.00,96.71
1798.00,96.67
1797.00,96.64
1796.00,96.62
1795.00,96.61
1794.00,96.59
1793.00,96.58
1792.00,96.57
1791.00,96.58
1790.00,96.59
1789.00,96.58
1788.00,96.56
1787.00,96.54
1786.00,96.54
1785.00,96.53
1784.00,96.51
1783.00,96.50
1782.00,96.48
1781.00,96.47
1780.00,96.44
1779.00,96.42
1778.00,96.39
1777.00,96.37
1776.00,96.35
1775.00,96.33
1774.00,96.29
1773.00,96.24
1772.00,96.21
1771.00,96.20
1770.00,96.20
1769.00,96.19
1768.00,96.16
1767.00,96.14
1766.00,96.12
1765.00,96.09
1764.00,96.07
1763.00,96.03
1762.00,96.01
1761.00,95.97
1760.00,95.93
1759.00,95.89
1758.00,95.87
1757.00,95.84
1756.00,95.79
1755.00,95.75
1754.00,95.70
1753.00,95.65
1752.00,95.58
1751.00,95.52
1750.00,95.48
1749.00,95.44
1748.00,95.39
1747.00,95.34
1746.00,95.29
1745.00,95.26
1744.00,95.22
1743.00,95.19
1742.00,95.16
1741.00,95.10
1740.00,95.00
1739.00,94.92
1738.00,94.87
1737.00,94.82
1736.00,94.73
1735.00,94.60
1734.00,94.48
1733.00,94.40
1732.00,94.36
1731.00,94.34
1730.00,94.31
1729.00,94.26
1728.00,94.18
1727.00,94.08
1726.00,94.00
1725.00,93.91
1724.00,93.80
1723.00,93.69
1722.00,93.61
1721.00,93.53
1720.00,93.44
1719.00,93.31
1718.00,93.13
1717.00,92.92
1716.00,92.75
1715.00,92.62
1714.00,92.53
1713.00,92.43
1712.00,92.31
1711.00,92.18
1710.00,92.05
1709.00,91.92
1708.00,91.77
1707.00,91.61
1706.00,91.43
1705.00,91.24
1704.00,91.06
1703.00,90.90
1702.00,90.71
1701.00,90.44
1700.00,90.09
1699.00,89.81
1698.00,89.63
1697.00,89.46
1696.00,89.20
1695.00,88.91
1694.00,88.69
1693.00,88.51
1692.00,88.33
1691.00,88.09
1690.00,87.83
1689.00,87.56
1688.00,87.32
1687.00,87.11
1686.00,86.89
1685.00,86.58
1684.00,86.15
1683.00,85.75
1682.00,85.48
1681.00,85.26
1680.00,85.01
1679.00,84.76
1678.00,84.52
1677.00,84.26
1676.00,83.93
1675.00,83.54
1674.00,83.22
1673.00,82.97
1672.00,82.73
1671.00,82.42
1670.00,82.05
1669.00,81.68
1668.00,81.34
1667.00,81.08
1666.00,80.87
1665.00,80.65
1664.00,80.36
1663.00,80.02
1662.00,79.71
1661.00,79.45
1660.00,79.22
1659.00,79.01
1658.00,78.82
1657.00,78.67
1656.00,78.52
1655.00,78.33
1654.00,78.04
1653.00,77.68
1652.00,77.39
1651.00,77.29
1650.00,77.27
1649.00,77.22
1648.00,77.07
1647.00,76.86
1646.00,76.70
1645.00,76.62
1644.00,76.56
1643.00,76.51
1642.00,76.47
1641.00,76.44
1640.00,76.42
1639.00,76.40
1638.00,76.39
1637.00,76.39
1636.00,76.41
1635.00,76.48
1634.00,76.58
1633.00,76.70
1632.00,76.82
1631.00,76.93
1630.00,77.06
1629.00,77.25
1628.00,77.46
1627.00,77.69
1626.00,77.90
1625.00,78.13
1624.00,78.40
1623.00,78.71
1622.00,79.05
1621.00,79.37
1620.00,79.63
1619.00,79.85
1618.00,80.11
1617.00,80.48
1616.00,80.92
1615.00,81.31
1614.00,81.64
1613.00,81.93
1612.00,82.22
1611.00,82.52
1610.00,82.82
1609.00,83.14
1608.00,83.46
1607.00,83.77
1606.00,84.05
1605.00,84.32
1604.00,84.59
1603.00,84.85
1602.00,85.11
1601.00,85.36
1600.00,85.60
1599.00,85.82
1598.00,86.03
1597.00,86.23
1596.00,86.43
1595.00,86.62
1594.00,86.80
1593.00,86.98
1592.00,87.15
1591.00,87.30
1590.00,87.44
1589.00,87.58
1588.00,87.72
1587.00,87.84
1586.00,87.95
1585.00,88.06
1584.00,88.16
1583.00,88.25
1582.00,88.33
1581.00,88.41
1580.00,88.48
1579.00,88.53
1578.00,88.55
1577.00,88.56
1576.00,88.61
1575.00,88.67
1574.00,88.73
1573.00,88.78
1572.00,88.80
1571.00,88.80
1570.00,88.80
1569.00,88.83
1568.00,88.85
1567.00,88.86
1566.00,88.86
1565.00,88.87
1564.00,88.89
1563.00,88.90
1562.00,88.91
1561.00,88.93
1560.00,88.95
1559.00,88.98
1558.00,89.01
1557.00,89.01
1556.00,89.04
1555.00,89.09
1554.00,89.15
1553.00,89.22
1552.00,89.31
1551.00,89.39
1550.00,89.48
1549.00,89.56
1548.00,89.61
1547.00,89.65
1546.00,89.68
1545.00,89.72
1544.00,89.78
1543.00,89.83
1542.00,89.85
1541.00,89.92
1540.00,90.10
1539.00,90.28
1538.00,90.36
1537.00,90.42
1536.00,90.48
1535.00,90.53
1534.00,90.61
1533.00,90.71
1532.00,90.82
1531.00,90.88
1530.00,90.92
1529.00,90.97
1528.00,91.03
1527.00,91.08
1526.00,91.12
1525.00,91.16
1524.00,91.20
1523.00,91.24
1522.00,91.29
1521.00,91.39
1520.00,91.49
1519.00,91.57
1518.00,91.61
1517.00,91.67
1516.00,91.75
1515.00,91.80
1514.00,91.83
1513.00,91.85
1512.00,91.88
1511.00,91.92
1510.00,91.95
1509.00,91.97
1508.00,91.98
1507.00,92.09
1506.00,92.22
1505.00,92.23
1504.00,92.22
1503.00,92.25
1502.00,92.28
1501.00,92.31
1500.00,92.35
1499.00,92.39
1498.00,92.41
1497.00,92.43
1496.00,92.45
1495.00,92.48
1494.00,92.51
1493.00,92.52
1492.00,92.52
1491.00,92.52
1490.00,92.52
1489.00,92.55
1488.00,92.58
1487.00,92.59
1486.00,92.58
1485.00,92.56
1484.00,92.54
1483.00,92.53
1482.00,92.50
1481.00,92.48
1480.00,92.46
1479.00,92.45
1478.00,92.42
1477.00,92.39
1476.00,92.34
1475.00,92.26
1474.00,92.15
1473.00,92.05
1472.00,92.01
1471.00,91.98
1470.00,91.94
1469.00,91.91
1468.00,91.88
1467.00,91.85
1466.00,91.81
1465.00,91.79
1464.00,91.77
1463.00,91.77
1462.00,91.76
1461.00,91.76
1460.00,91.77
1459.00,91.76
1458.00,91.73
1457.00,91.73
1456.00,91.77
1455.00,91.83
1454.00,91.89
1453.00,91.95
1452.00,92.01
1451.00,92.06
1450.00,92.10
1449.00,92.14
1448.00,92.19
1447.00,92.23
1446.00,92.25
1445.00,92.26
1444.00,92.27
1443.00,92.28
1442.00,92.29
1441.00,92.30
1440.00,92.31
1439.00,92.32
1438.00,92.33
1437.00,92.34
1436.00,92.35
1435.00,92.36
1434.00,92.36
1433.00,92.37
1432.00,92.37
1431.00,92.39
1430.00,92.39
1429.00,92.39
1428.00,92.38
1427.00,92.37
1426.00,92.36
1425.00,92.35
1424.00,92.34
1423.00,92.34
1422.00,92.32
1421.00,92.31
1420.00,92.29
1419.00,92.29
1418.00,92.28
1417.00,92.28
1416.00,92.26
1415.00,92.25
1414.00,92.23
1413.00,92.22
1412.00,92.21
1411.00,92.20
1410.00,92.21
1409.00,92.21
1408.00,92.22
1407.00,92.24
1406.00,92.26
1405.00,92.27
1404.00,92.28
1403.00,92.29
1402.00,92.30
1401.00,92.31
1400.00,92.32
1399.00,92.33
1398.00,92.34
1397.00,92.35
1396.00,92.36
1395.00,92.38
1394.00,92.39
1393.00,92.38
1392.00,92.35
1391.00,92.32
1390.00,92.29
1389.00,92.25
1388.00,92.22
1387.00,92.20
1386.00,92.20
1385.00,92.21
1384.00,92.24
1383.00,92.27
1382.00,92.30
1381.00,92.33
1380.00,92.36
1379.00,92.38
1378.00,92.40
1377.00,92.41
1376.00,92.43
1375.00,92.44
1374.00,92.47
1373.00,92.49
1372.00,92.51
1371.00,92.52
1370.00,92.54
1369.00,92.57
1368.00,92.61
1367.00,92.65
1366.00,92.67
1365.00,92.70
1364.00,92.73
1363.00,92.76
1362.00,92.77
1361.00,92.78
1360.00,92.78
1359.00,92.76
1358.00,92.74
1357.00,92.73
1356.00,92.72
1355.00,92.70
1354.00,92.69
1353.00,92.67
1352.00,92.66
1351.00,92.63
1350.00,92.61
1349.00,92.58
1348.00,92.56
1347.00,92.54
1346.00,92.51
1345.00,92.49
1344.00,92.47
1343.00,92.44
1342.00,92.42
1341.00,92.39
1340.00,92.38
1339.00,92.39
1338.00,92.41
1337.00,92.43
1336.00,92.46
1335.00,92.48
1334.00,92.50
1333.00,92.52
1332.00,92.54
1331.00,92.55
1330.00,92.56
1329.00,92.57
1328.00,92.59
1327.00,92.59
1326.00,92.59
1325.00,92.59
1324.00,92.59
1323.00,92.58
1322.00,92.56
1321.00,92.55
1320.00,92.54
1319.00,92.53
1318.00,92.52
1317.00,92.53
1316.00,92.53
1315.00,92.54
1314.00,92.54
1313.00,92.54
1312.00,92.55
1311.00,92.56
1310.00,92.56
1309.00,92.57
1308.00,92.58
1307.00,92.58
1306.00,92.59
1305.00,92.59
1304.00,92.60
1303.00,92.61
1302.00,92.61
1301.00,92.62
1300.00,92.63
1299.00,92.63
1298.00,92.63
1297.00,92.63
1296.00,92.63
1295.00,92.64
1294.00,92.63
1293.00,92.63
1292.00,92.62
1291.00,92.61
1290.00,92.59
1289.00,92.58
1288.00,92.58
1287.00,92.59
1286.00,92.59
1285.00,92.60
1284.00,92.61
1283.00,92.61
1282.00,92.62
1281.00,92.62
1280.00,92.64
1279.00,92.65
1278.00,92.66
1277.00,92.67
1276.00,92.68
1275.00,92.69
1274.00,92.68
1273.00,92.68
1272.00,92.68
1271.00,92.68
1270.00,92.67
1269.00,92.67
1268.00,92.67
1267.00,92.67
1266.00,92.66
1265.00,92.66
1264.00,92.65
1263.00,92.64
1262.00,92.62
1261.00,92.61
1260.00,92.60
1259.00,92.58
1258.00,92.57
1257.00,92.56
1256.00,92.55
1255.00,92.53
1254.00,92.51
1253.00,92.50
1252.00,92.49
1251.00,92.47
1250.00,92.46
1249.00,92.45
1248.00,92.44
1247.00,92.43
1246.00,92.42
1245.00,92.41
1244.00,92.41
1243.00,92.41
1242.00,92.42
1241.00,92.43
1240.00,92.44
1239.00,92.46
1238.00,92.48
1237.00,92.51
1236.00,92.54
1235.00,92.57
1234.00,92.60
1233.00,92.63
1232.00,92.67
1231.00,92.70
1230.00,92.73
1229.00,92.77
1228.00,92.80
1227.00,92.83
1226.00,92.85
1225.00,92.87
1224.00,92.90
1223.00,92.92
1222.00,92.94
1221.00,92.95
1220.00,92.96
1219.00,92.96
1218.00,92.96
1217.00,92.96
1216.00,92.96
1215.00,92.95
1214.00,92.94
1213.00,92.93
1212.00,92.92
1211.00,92.91
1210.00,92.90
1209.00,92.89
1208.00,92.88
1207.00,92.87
1206.00,92.87
1205.00,92.87
1204.00,92.87
1203.00,92.88
1202.00,92.89
1201.00,92.91
1200.00,92.94
1199.00,92.97
1198.00,92.99
1197.00,93.02
1196.00,93.05
1195.00,93.07
1194.00,93.09
1193.00,93.11
1192.00,93.13
1191.00,93.15
1190.00,93.16
1189.00,93.18
1188.00,93.19
1187.00,93.21
1186.00,93.21
1185.00,93.23
1184.00,93.24
1183.00,93.25
1182.00,93.25
1181.00,93.25
1180.00,93.24
1179.00,93.22
1178.00,93.20
1177.00,93.19
1176.00,93.18
1175.00,93.16
1174.00,93.14
1173.00,93.12
1172.00,93.09
1171.00,93.06
1170.00,93.02
1169.00,92.98
1168.00,92.95
1167.00,92.93
1166.00,92.90
1165.00,92.89
1164.00,92.89
1163.00,92.90
1162.00,92.91
1161.00,92.94
1160.00,92.96
1159.00,92.99
1158.00,93.02
1157.00,93.04
1156.00,93.07
1155.00,93.10
1154.00,93.11
1153.00,93.13
1152.00,93.15
1151.00,93.16
1150.00,93.17
1149.00,93.17
1148.00,93.18
1147.00,93.18
1146.00,93.17
1145.00,93.17
1144.00,93.16
1143.00,93.15
1142.00,93.12
1141.00,93.10
1140.00,93.07
1139.00,93.04
1138.00,93.00
1137.00,92.96
1136.00,92.91
1135.00,92.86
1134.00,92.80
1133.00,92.72
1132.00,92.64
1131.00,92.54
1130.00,92.44
1129.00,92.33
1128.00,92.24
1127.00,92.16
1126.00,92.10
1125.00,92.06
1124.00,92.03
1123.00,92.01
1122.00,91.98
1121.00,91.95
1120.00,91.92
1119.00,91.88
1118.00,91.84
1117.00,91.80
1116.00,91.77
1115.00,91.74
1114.00,91.71
1113.00,91.69
1112.00,91.68
1111.00,91.68
1110.00,91.69
1109.00,91.70
1108.00,91.72
1107.00,91.75
1106.00,91.77
1105.00,91.81
1104.00,91.84
1103.00,91.89
1102.00,91.93
1101.00,91.97
1100.00,92.01
1099.00,92.06
1098.00,92.09
1097.00,92.12
1096.00,92.16
1095.00,92.19
1094.00,92.21
1093.00,92.24
1092.00,92.26
1091.00,92.27
1090.00,92.27
1089.00,92.27
1088.00,92.27
1087.00,92.25
1086.00,92.24
1085.00,92.22
1084.00,92.21
1083.00,92.20
1082.00,92.19
1081.00,92.18
1080.00,92.18
1079.00,92.17
1078.00,92.17
1077.00,92.17
1076.00,92.17
1075.00,92.16
1074.00,92.15
1073.00,92.13
1072.00,92.12
1071.00,92.10
1070.00,92.08
1069.00,92.05
1068.00,92.01
1067.00,91.97
1066.00,91.92
1065.00,91.87
1064.00,91.82
1063.00,91.76
1062.00,91.70
1061.00,91.63
1060.00,91.57
1059.00,91.50
1058.00,91.43
1057.00,91.36
1056.00,91.29
1055.00,91.21
1054.00,91.13
1053.00,91.04
1052.00,90.95
1051.00,90.86
1050.00,90.76
1049.00,90.68
1048.00,90.61
1047.00,90.55
1046.00,90.51
1045.00,90.49
1044.00,90.48
1043.00,90.49
1042.00,90.51
1041.00,90.53
1040.00,90.57
1039.00,90.60
1038.00,90.64
1037.00,90.67
1036.00,90.72
1035.00,90.76
1034.00,90.81
1033.00,90.86
1032.00,90.93
1031.00,91.00
1030.00,91.07
1029.00,91.14
1028.00,91.22
1027.00,91.30
1026.00,91.37
1025.00,91.45
1024.00,91.52
1023.00,91.59
1022.00,91.64
1021.00,91.70
1020.00,91.74
1019.00,91.79
1018.00,91.82
1017.00,91.84
1016.00,91.87
1015.00,91.88
1014.00,91.89
1013.00,91.89
1012.00,91.90
1011.00,91.89
1010.00,91.88
1009.00,91.86
1008.00,91.84
1007.00,91.82
1006.00,91.78
1005.00,91.73
1004.00,91.69
1003.00,91.63
1002.00,91.57
1001.00,91.50
1000.00,91.44
999.00,91.38
998.00,91.31
997.00,91.26
996.00,91.22
995.00,91.20
994.00,91.17
993.00,91.16
992.00,91.17
991.00,91.17
990.00,91.18
989.00,91.20
988.00,91.21
987.00,91.22
986.00,91.22
985.00,91.22
984.00,91.22
983.00,91.20
982.00,91.18
981.00,91.16
980.00,91.13
979.00,91.10
978.00,91.07
977.00,91.04
976.00,91.02
975.00,90.99
974.00,90.97
973.00,90.94
972.00,90.93
971.00,90.91
970.00,90.89
969.00,90.86
968.00,90.84
967.00,90.82
966.00,90.78
965.00,90.75
964.00,90.72
963.00,90.69
962.00,90.65
961.00,90.60
960.00,90.55
959.00,90.49
958.00,90.42
957.00,90.35
956.00,90.27
955.00,90.17
954.00,90.06
953.00,89.93
952.00,89.80
951.00,89.64
950.00,89.48
949.00,89.33
948.00,89.19
947.00,89.08
946.00,88.99
945.00,88.94
944.00,88.92
943.00,88.90
942.00,88.90
941.00,88.89
940.00,88.88
939.00,88.86
938.00,88.83
937.00,88.80
936.00,88.76
935.00,88.71
934.00,88.64
933.00,88.57
932.00,88.50
931.00,88.42
930.00,88.33
929.00,88.25
928.00,88.17
927.00,88.09
926.00,88.01
925.00,87.94
924.00,87.87
923.00,87.80
922.00,87.73
921.00,87.65
920.00,87.58
919.00,87.51
918.00,87.42
917.00,87.34
916.00,87.26
915.00,87.18
914.00,87.10
913.00,87.02
912.00,86.94
911.00,86.85
910.00,86.76
909.00,86.67
908.00,86.58
907.00,86.50
906.00,86.40
905.00,86.31
904.00,86.21
903.00,86.12
902.00,86.01
901.00,85.91
900.00,85.80
899.00,85.70
898.00,85.59
897.00,85.48
896.00,85.36
895.00,85.25
894.00,85.13
893.00,85.01
892.00,84.89
891.00,84.77
890.00,84.65
889.00,84.52
888.00,84.39
887.00,84.26
886.00,84.13
885.00,83.99
884.00,83.86
883.00,83.72
882.00,83.58
881.00,83.44
880.00,83.29
879.00,83.14
878.00,82.99
877.00,82.84
876.00,82.68
875.00,82.53
874.00,82.37
873.00,82.21
872.00,82.06
871.00,81.90
870.00,81.74
869.00,81.58
868.00,81.43
867.00,81.27
866.00,81.12
865.00,80.97
864.00,80.83
863.00,80.68
862.00,80.53
861.00,80.38
860.00,80.22
859.00,80.07
858.00,79.91
857.00,79.75
856.00,79.60
855.00,79.44
854.00,79.28
853.00,79.12
852.00,78.97
851.00,78.81
850.00,78.66
849.00,78.51
848.00,78.36
847.00,78.21
846.00,78.06
845.00,77.91
844.00,77.76
843.00,77.61
842.00,77.45
841.00,77.30
840.00,77.16
839.00,77.01
838.00,76.86
837.00,76.71
836.00,76.55
835.00,76.40
834.00,76.25
833.00,76.10
832.00,75.95
831.00,75.79
830.00,75.63
829.00,75.47
828.00,75.31
827.00,75.15
826.00,74.98
825.00,74.81
824.00,74.63
823.00,74.45
822.00,74.26
821.00,74.06
820.00,73.86
819.00,73.65
818.00,73.43
817.00,73.22
816.00,73.02
815.00,72.84
814.00,72.68
813.00,72.53
812.00,72.40
811.00,72.26
810.00,72.13
809.00,71.99
808.00,71.85
807.00,71.70
806.00,71.55
805.00,71.40
804.00,71.25
803.00,71.10
802.00,70.94
801.00,70.78
800.00,70.62
799.00,70.46
798.00,70.30
797.00,70.13
796.00,69.97
795.00,69.81
794.00,69.65
793.00,69.49
792.00,69.33
791.00,69.17
790.00,69.01
789.00,68.84
788.00,68.68
787.00,68.52
786.00,68.36
785.00,68.20
784.00,68.03
783.00,67.87
782.00,67.70
781.00,67.54
780.00,67.38
779.00,67.22
778.00,67.05
777.00,66.89
776.00,66.73
775.00,66.57
774.00,66.41
773.00,66.25
772.00,66.09
771.00,65.92
770.00,65.76
769.00,65.59
768.00,65.43
767.00,65.27
766.00,65.12
765.00,64.96
764.00,64.80
763.00,64.63
762.00,64.47
761.00,64.32
760.00,64.16
759.00,64.00
758.00,63.84
757.00,63.68
756.00,63.52
755.00,63.36
754.00,63.21
753.00,63.06
752.00,62.90
751.00,62.74
750.00,62.59
749.00,62.43
748.00,62.27
747.00,62.12
746.00,61.96
745.00,61.81
744.00,61.65
743.00,61.50
742.00,61.34
741.00,61.19
740.00,61.04
739.00,60.88
738.00,60.74
737.00,60.58
736.00,60.42
735.00,60.26
734.00,60.11
733.00,59.96
732.00,59.81
731.00,59.66
730.00,59.51
729.00,59.36
728.00,59.21
727.00,59.06
726.00,58.91
725.00,58.76
724.00,58.61
723.00,58.46
722.00,58.31
721.00,58.15
720.00,58.00
719.00,57.85
718.00,57.70
717.00,57.57
716.00,57.42
715.00,57.28
714.00,57.14
713.00,57.00
712.00,56.85
711.00,56.70
710.00,56.56
709.00,56.42
708.00,56.27
707.00,56.12
706.00,55.98
705.00,55.84
704.00,55.69
703.00,55.55
702.00,55.41
701.00,55.28
700.00,55.14
699.00,55.00
698.00,54.87
697.00,54.74
696.00,54.61
695.00,54.47
694.00,54.33
693.00,54.20
692.00,54.06
691.00,53.92
690.00,53.78
689.00,53.64
688.00,53.50
687.00,53.37
686.00,53.26
685.00,53.14
684.00,53.00
683.00,52.86
682.00,52.73
681.00,52.60
680.00,52.46
679.00,52.31
678.00,52.18
677.00,52.05
676.00,51.91
675.00,51.78
674.00,51.65
673.00,51.53
672.00,51.42
671.00,51.32
670.00,51.24
669.00,51.12
668.00,50.94
667.00,50.75
666.00,50.62
665.00,50.54
664.00,50.44
663.00,50.34
662.00,50.23
661.00,50.12
660.00,49.99
659.00,49.87
658.00,49.77
657.00,49.67
656.00,49.56
655.00,49.45
654.00,49.35
653.00,49.25
652.00,49.13
651.00,49.01
650.00,48.92
649.00,48.81
648.00,48.69
647.00,48.57
646.00,48.49
645.00,48.41
644.00,48.30
643.00,48.20
642.00,48.11
641.00,48.02
640.00,47.91
639.00,47.81
638.00,47.73
637.00,47.65
636.00,47.53
635.00,47.42
634.00,47.34
633.00,47.26
632.00,47.15
631.00,47.05
630.00,46.98
629.00,46.90
628.00,46.80
627.00,46.70
626.00,46.64
625.00,46.57
624.00,46.47
623.00,46.35
622.00,46.28
621.00,46.21
620.00,46.12
619.00,46.06
618.00,46.03
617.00,45.99
616.00,45.90
615.00,45.81
614.00,45.77
613.00,45.70
612.00,45.59
611.00,45.50
610.00,45.48
609.00,45.46
608.00,45.39
607.00,45.31
606.00,45.28
605.00,45.25
604.00,45.16
603.00,45.04
602.00,44.92
601.00,44.76
600.00,44.64
599.00,44.64
598.00,44.78
597.00,44.89
596.00,44.91
595.00,44.89
594.00,44.89
593.00,44.87
592.00,44.76
591.00,44.69
590.00,44.72
589.00,44.74
588.00,44.70
587.00,44.67
586.00,44.72
585.00,44.73
584.00,44.63
583.00,44.55
582.00,44.57
581.00,44.57
580.00,44.45
579.00,44.35
578.00,44.39
577.00,44.44
576.00,44.39
575.00,44.36
574.00,44.43
573.00,44.45
572.00,44.33
571.00,44.26
570.00,44.33
569.00,44.36
568.00,44.23
567.00,44.13
566.00,44.19
565.00,44.27
564.00,44.22
563.00,44.20
562.00,44.27
561.00,44.29
560.00,44.17
559.00,44.10
558.00,44.16
557.00,44.18
556.00,44.07
555.00,44.01
554.00,44.13
553.00,44.19
552.00,44.08
551.00,44.01
550.00,44.13
549.00,44.22
548.00,44.11
547.00,43.99
546.00,44.07
545.00,44.15
544.00,44.09
543.00,44.13
542.00,44.42
541.00,44.62
540.00,44.50
539.00,44.31
538.00,44.33
537.00,44.31
536.00,44.04
535.00,43.84
534.00,44.00
533.00,44.16
532.00,44.00
531.00,43.86
530.00,44.07
529.00,44.15
528.00,43.70
527.00,43.29
526.00,43.62
525.00,44.01
524.00,43.75
523.00,43.56
522.00,44.17
521.00,44.62
520.00,43.89
519.00,42.94
518.00,43.35
517.00,43.55
516.00,41.86
515.00,40.48
514.00,42.37
513.00,44.04
512.00,43.09
511.00,40.51
510.00,46.04
509.00,46.09
508.00,52.74
507.00,46.68
506.00,62.95
505.00,37.16
504.00,66.73
503.00,561.66
502.00,59.42
501.00,12.81
500.00,115.85
499.00,244.60
498.00,82.60
497.00,41.40
496.00,83.67
495.00,59.62
494.00,72.12
493.00,76.28
492.00,30.88
491.00,47.89
490.00,18.13
489.00,50.28
488.00,53.93
487.00,56.14
486.00,250.13
485.00,110.54
484.00,38.23
483.00,53.11
482.00,57.45
481.00,36.05
480.00,62.37
479.00,55.62
478.00,69.49
477.00,119.27
476.00,54.43
475.00,30.39
474.00,48.17
473.00,63.57
472.00,64.82
471.00,57.55
470.00,64.04
469.00,78.52
468.00,47.36
467.00,41.71
466.00,50.05
465.00,58.28
464.00,63.11
463.00,71.99
462.00,35.57
461.00,44.16
460.00,336.58
459.00,103.45
458.00,135.05
457.00,47.18
456.00,41.38
455.00,51.37
454.00,49.62
453.00,85.22
452.00,76.44
451.00,75.44
450.00,68.97
449.00,39.96
448.00,68.22
447.00,102.39
446.00,53.64
445.00,24.38
444.00,60.22
443.00,91.71
442.00,54.56
441.00,57.53
440.00,62.73
439.00,50.32
438.00,61.79
437.00,53.19
436.00,124.66
435.00,82.91
434.00,83.94
433.00,48.73
432.00,51.21
431.00,43.47
430.00,120.35
429.00,124.07
428.00,130.78
427.00,61.46
426.00,102.46
425.00,93.70
424.00,89.07
423.00,53.28
422.00,58.19
421.00,72.45
420.00,57.37
419.00,57.64
418.00,70.23
417.00,72.63
416.00,105.91
415.00,102.07
414.00,69.26
413.00,63.37
412.00,22.91
411.00,29.41
410.00,83.11
409.00,59.42
408.00,88.56
407.00,71.61
406.00,210.75
405.00,99.90
404.00,85.63
403.00,30.11
402.00,81.57
401.00,78.51
400.00,69.03
