Created as New Dataset,Sample 003 By FTIR User 2.0 Date Friday, March 01 2024
cm-1,%T
4000.00,89.62
3999.00,89.62
3998.00,89.62
3997.00,89.63
3996.00,89.63
3995.00,89.63
3994.00,89.63
3993.00,89.63
3992.00,89.63
3991.00,89.63
3990.00,89.64
3989.00,89.65
3988.00,89.65
3987.00,89.66
3986.00,89.66
3985.00,89.66
3984.00,89.66
3983.00,89.67
3982.00,89.67
3981.00,89.68
3980.00,89.68
3979.00,89.68
3978.00,89.68
3977.00,89.67
3976.00,89.67
3975.00,89.68
3974.00,89.68
3973.00,89.69
3972.00,89.69
3971.00,89.70
3970.00,89.71
3969.00,89.72
3968.00,89.73
3967.00,89.74
3966.00,89.74
3965.00,89.73
3964.00,89.72
3963.00,89.72
3962.00,89.73
3961.00,89.74
3960.00,89.74
3959.00,89.75
3958.00,89.75
3957.00,89.76
3956.00,89.77
3955.00,89.78
3954.00,89.78
3953.00,89.77
3952.00,89.76
3951.00,89.75
3950.00,89.75
3949.00,89.75
3948.00,89.75
3947.00,89.75
3946.00,89.74
3945.00,89.74
3944.00,89.75
3943.00,89.78
3942.00,89.82
3941.00,89.84
3940.00,89.84
3939.00,89.83
3938.00,89.82
3937.00,89.82
3936.00,89.82
3935.00,89.81
3934.00,89.80
3933.00,89.80
3932.00,89.81
3931.00,89.83
3930.00,89.84
3929.00,89.84
3928.00,89.83
3927.00,89.82
3926.00,89.83
3925.00,89.85
3924.00,89.87
3923.00,89.89
3922.00,89.88
3921.00,89.86
3920.00,89.85
3919.00,89.84
3918.00,89.85
3917.00,89.88
3916.00,89.90
3915.00,89.93
3914.00,89.94
3913.00,89.95
3912.00,89.96
3911.00,89.97
3910.00,89.98
3909.00,89.99
3908.00,89.98
3907.00,89.96
3906.00,89.94
3905.00,89.91
3904.00,89.88
3903.00,89.85
3902.00,89.82
3901.00,89.80
3900.00,89.80
3899.00,89.83
3898.00,89.86
3897.00,89.88
3896.00,89.89
3895.00,89.89
3894.00,89.90
3893.00,89.92
3892.00,89.95
3891.00,89.98
3890.00,90.00
3889.00,89.99
3888.00,89.96
3887.00,89.93
3886.00,89.92
3885.00,89.93
3884.00,89.96
3883.00,89.98
3882.00,89.98
3881.00,89.99
3880.00,90.02
3879.00,90.05
3878.00,90.04
3877.00,90.02
3876.00,90.00
3875.00,90.01
3874.00,90.03
3873.00,90.05
3872.00,90.04
3871.00,89.99
3870.00,89.96
3869.00,89.96
3868.00,89.96
3867.00,89.94
3866.00,89.90
3865.00,89.89
3864.00,89.93
3863.00,89.99
3862.00,90.02
3861.00,90.02
3860.00,90.01
3859.00,90.02
3858.00,90.05
3857.00,90.09
3856.00,90.10
3855.00,90.07
3854.00,90.03
3853.00,90.01
3852.00,90.01
3851.00,90.02
3850.00,90.02
3849.00,90.03
3848.00,90.05
3847.00,90.07
3846.00,90.10
3845.00,90.13
3844.00,90.14
3843.00,90.15
3842.00,90.15
3841.00,90.14
3840.00,90.13
3839.00,90.12
3838.00,90.11
3837.00,90.11
3836.00,90.09
3835.00,90.09
3834.00,90.09
3833.00,90.10
3832.00,90.13
3831.00,90.15
3830.00,90.18
3829.00,90.20
3828.00,90.21
3827.00,90.22
3826.00,90.23
3825.00,90.24
3824.00,90.22
3823.00,90.17
3822.00,90.13
3821.00,90.13
3820.00,90.16
3819.00,90.18
3818.00,90.17
3817.00,90.16
3816.00,90.17
3815.00,90.23
3814.00,90.28
3813.00,90.31
3812.00,90.31
3811.00,90.32
3810.00,90.33
3809.00,90.34
3808.00,90.34
3807.00,90.32
3806.00,90.31
3805.00,90.31
3804.00,90.29
3803.00,90.25
3802.00,90.22
3801.00,90.23
3800.00,90.26
3799.00,90.26
3798.00,90.25
3797.00,90.25
3796.00,90.29
3795.00,90.33
3794.00,90.37
3793.00,90.40
3792.00,90.41
3791.00,90.43
3790.00,90.45
3789.00,90.47
3788.00,90.47
3787.00,90.47
3786.00,90.47
3785.00,90.48
3784.00,90.48
3783.00,90.48
3782.00,90.46
3781.00,90.44
3780.00,90.44
3779.00,90.45
3778.00,90.47
3777.00,90.47
3776.00,90.46
3775.00,90.45
3774.00,90.45
3773.00,90.46
3772.00,90.46
3771.00,90.44
3770.00,90.42
3769.00,90.41
3768.00,90.40
3767.00,90.38
3766.00,90.37
3765.00,90.38
3764.00,90.40
3763.00,90.41
3762.00,90.39
3761.00,90.36
3760.00,90.36
3759.00,90.37
3758.00,90.38
3757.00,90.37
3756.00,90.34
3755.00,90.31
3754.00,90.27
3753.00,90.22
3752.00,90.18
3751.00,90.14
3750.00,90.09
3749.00,90.04
3748.00,90.02
3747.00,90.03
3746.00,90.03
3745.00,90.03
3744.00,90.04
3743.00,90.07
3742.00,90.10
3741.00,90.10
3740.00,90.08
3739.00,90.06
3738.00,90.05
3737.00,90.04
3736.00,90.07
3735.00,90.13
3734.00,90.16
3733.00,90.15
3732.00,90.11
3731.00,90.09
3730.00,90.10
3729.00,90.12
3728.00,90.12
3727.00,90.11
3726.00,90.13
3725.00,90.15
3724.00,90.18
3723.00,90.18
3722.00,90.19
3721.00,90.20
3720.00,90.22
3719.00,90.23
3718.00,90.22
3717.00,90.21
3716.00,90.20
3715.00,90.17
3714.00,90.13
3713.00,90.09
3712.00,90.06
3711.00,90.05
3710.00,90.04
3709.00,90.02
3708.00,90.00
3707.00,89.99
3706.00,90.00
3705.00,90.01
3704.00,90.02
3703.00,90.02
3702.00,90.02
3701.00,90.01
3700.00,89.98
3699.00,89.94
3698.00,89.89
3697.00,89.85
3696.00,89.82
3695.00,89.79
3694.00,89.74
3693.00,89.69
3692.00,89.63
3691.00,89.57
3690.00,89.52
3689.00,89.46
3688.00,89.37
3687.00,89.30
3686.00,89.25
3685.00,89.22
3684.00,89.18
3683.00,89.14
3682.00,89.09
3681.00,89.04
3680.00,88.98
3679.00,88.93
3678.00,88.85
3677.00,88.73
3676.00,88.58
3675.00,88.46
3674.00,88.37
3673.00,88.27
3672.00,88.16
3671.00,88.04
3670.00,87.96
3669.00,87.93
3668.00,87.90
3667.00,87.84
3666.00,87.78
3665.00,87.72
3664.00,87.66
3663.00,87.60
3662.00,87.52
3661.00,87.43
3660.00,87.33
3659.00,87.23
3658.00,87.10
3657.00,86.97
3656.00,86.84
3655.00,86.74
3654.00,86.64
3653.00,86.54
3652.00,86.39
3651.00,86.22
3650.00,86.07
3649.00,85.95
3648.00,85.84
3647.00,85.75
3646.00,85.67
3645.00,85.60
3644.00,85.53
3643.00,85.48
3642.00,85.42
3641.00,85.37
3640.00,85.31
3639.00,85.23
3638.00,85.14
3637.00,85.05
3636.00,84.95
3635.00,84.84
3634.00,84.74
3633.00,84.64
3632.00,84.55
3631.00,84.41
3630.00,84.25
3629.00,84.09
3628.00,83.98
3627.00,83.91
3626.00,83.84
3625.00,83.77
3624.00,83.70
3623.00,83.63
3622.00,83.55
3621.00,83.46
3620.00,83.37
3619.00,83.27
3618.00,83.17
3617.00,83.06
3616.00,82.94
3615.00,82.82
3614.00,82.72
3613.00,82.64
3612.00,82.56
3611.00,82.46
3610.00,82.34
3609.00,82.24
3608.00,82.16
3607.00,82.11
3606.00,82.05
3605.00,81.98
3604.00,81.89
3603.00,81.80
3602.00,81.70
3601.00,81.61
3600.00,81.51
3599.00,81.42
3598.00,81.32
3597.00,81.22
3596.00,81.12
3595.00,81.02
3594.00,80.92
3593.00,80.82
3592.00,80.72
3591.00,80.61
3590.00,80.49
3589.00,80.36
3588.00,80.24
3587.00,80.14
3586.00,80.04
3585.00,79.94
3584.00,79.84
3583.00,79.75
3582.00,79.67
3581.00,79.60
3580.00,79.52
3579.00,79.44
3578.00,79.35
3577.00,79.25
3576.00,79.15
3575.00,79.04
3574.00,78.93
3573.00,78.81
3572.00,78.69
3571.00,78.57
3570.00,78.43
3569.00,78.28
3568.00,78.14
3567.00,78.01
3566.00,77.90
3565.00,77.79
3564.00,77.67
3563.00,77.55
3562.00,77.45
3561.00,77.36
3560.00,77.29
3559.00,77.21
3558.00,77.12
3557.00,77.01
3556.00,76.90
3555.00,76.78
3554.00,76.65
3553.00,76.52
3552.00,76.40
3551.00,76.28
3550.00,76.15
3549.00,76.00
3548.00,75.84
3547.00,75.67
3546.00,75.52
3545.00,75.40
3544.00,75.31
3543.00,75.24
3542.00,75.16
3541.00,75.09
3540.00,74.99
3539.00,74.88
3538.00,74.75
3537.00,74.62
3536.00,74.50
3535.00,74.40
3534.00,74.30
3533.00,74.19
3532.00,74.08
3531.00,73.95
3530.00,73.82
3529.00,73.68
3528.00,73.54
3527.00,73.39
3526.00,73.24
3525.00,73.09
3524.00,72.96
3523.00,72.86
3522.00,72.79
3521.00,72.72
3520.00,72.63
3519.00,72.52
3518.00,72.41
3517.00,72.28
3516.00,72.15
3515.00,72.02
3514.00,71.90
3513.00,71.78
3512.00,71.67
3511.00,71.56
3510.00,71.44
3509.00,71.33
3508.00,71.21
3507.00,71.08
3506.00,70.94
3505.00,70.79
3504.00,70.63
3503.00,70.48
3502.00,70.36
3501.00,70.27
3500.00,70.17
3499.00,70.06
3498.00,69.94
3497.00,69.83
3496.00,69.72
3495.00,69.62
3494.00,69.52
3493.00,69.43
3492.00,69.32
3491.00,69.21
3490.00,69.08
3489.00,68.95
3488.00,68.82
3487.00,68.69
3486.00,68.58
3485.00,68.48
3484.00,68.37
3483.00,68.25
3482.00,68.11
3481.00,67.97
3480.00,67.84
3479.00,67.74
3478.00,67.65
3477.00,67.56
3476.00,67.46
3475.00,67.35
3474.00,67.24
3473.00,67.11
3472.00,66.97
3471.00,66.82
3470.00,66.66
3469.00,66.51
3468.00,66.39
3467.00,66.29
3466.00,66.20
3465.00,66.12
3464.00,66.03
3463.00,65.92
3462.00,65.79
3461.00,65.66
3460.00,65.55
3459.00,65.45
3458.00,65.36
3457.00,65.27
3456.00,65.17
3455.00,65.07
3454.00,64.95
3453.00,64.84
3452.00,64.73
3451.00,64.61
3450.00,64.48
3449.00,64.35
3448.00,64.21
3447.00,64.08
3446.00,63.97
3445.00,63.86
3444.00,63.76
3443.00,63.65
3442.00,63.54
3441.00,63.42
3440.00,63.28
3439.00,63.13
3438.00,62.98
3437.00,62.83
3436.00,62.71
3435.00,62.61
3434.00,62.53
3433.00,62.44
3432.00,62.33
3431.00,62.22
3430.00,62.11
3429.00,62.01
3428.00,61.93
3427.00,61.85
3426.00,61.77
3425.00,61.68
3424.00,61.58
3423.00,61.46
3422.00,61.34
3421.00,61.23
3420.00,61.13
3419.00,61.05
3418.00,60.96
3417.00,60.86
3416.00,60.75
3415.00,60.62
3414.00,60.50
3413.00,60.39
3412.00,60.29
3411.00,60.20
3410.00,60.12
3409.00,60.03
3408.00,59.95
3407.00,59.88
3406.00,59.80
3405.00,59.70
3404.00,59.59
3403.00,59.46
3402.00,59.34
3401.00,59.23
3400.00,59.16
3399.00,59.11
3398.00,59.07
3397.00,59.02
3396.00,58.95
3395.00,58.86
3394.00,58.76
3393.00,58.66
3392.00,58.58
3391.00,58.53
3390.00,58.51
3389.00,58.49
3388.00,58.46
3387.00,58.42
3386.00,58.36
3385.00,58.31
3384.00,58.24
3383.00,58.17
3382.00,58.10
3381.00,58.03
3380.00,57.96
3379.00,57.90
3378.00,57.85
3377.00,57.79
3376.00,57.75
3375.00,57.71
3374.00,57.66
3373.00,57.60
3372.00,57.53
3371.00,57.45
3370.00,57.37
3369.00,57.31
3368.00,57.28
3367.00,57.26
3366.00,57.25
3365.00,57.25
3364.00,57.25
3363.00,57.22
3362.00,57.18
3361.00,57.14
3360.00,57.11
3359.00,57.10
3358.00,57.09
3357.00,57.09
3356.00,57.07
3355.00,57.03
3354.00,56.99
3353.00,56.94
3352.00,56.89
3351.00,56.85
3350.00,56.84
3349.00,56.84
3348.00,56.85
3347.00,56.85
3346.00,56.83
3345.00,56.80
3344.00,56.77
3343.00,56.74
3342.00,56.72
3341.00,56.70
3340.00,56.68
3339.00,56.66
3338.00,56.64
3337.00,56.65
3336.00,56.67
3335.00,56.69
3334.00,56.70
3333.00,56.70
3332.00,56.70
3331.00,56.68
3330.00,56.67
3329.00,56.65
3328.00,56.62
3327.00,56.60
3326.00,56.58
3325.00,56.58
3324.00,56.59
3323.00,56.61
3322.00,56.62
3321.00,56.63
3320.00,56.63
3319.00,56.63
3318.00,56.63
3317.00,56.63
3316.00,56.63
3315.00,56.62
3314.00,56.61
3313.00,56.60
3312.00,56.59
3311.00,56.56
3310.00,56.54
3309.00,56.51
3308.00,56.50
3307.00,56.49
3306.00,56.50
3305.00,56.52
3304.00,56.54
3303.00,56.57
3302.00,56.60
3301.00,56.62
3300.00,56.62
3299.00,56.62
3298.00,56.60
3297.00,56.59
3296.00,56.58
3295.00,56.57
3294.00,56.57
3293.00,56.58
3292.00,56.59
3291.00,56.62
3290.00,56.64
3289.00,56.67
3288.00,56.69
3287.00,56.70
3286.00,56.71
3285.00,56.72
3284.00,56.73
3283.00,56.74
3282.00,56.74
3281.00,56.75
3280.00,56.76
3279.00,56.76
3278.00,56.76
3277.00,56.75
3276.00,56.75
3275.00,56.74
3274.00,56.74
3273.00,56.75
3272.00,56.76
3271.00,56.77
3270.00,56.80
3269.00,56.84
3268.00,56.88
3267.00,56.92
3266.00,56.95
3265.00,56.98
3264.00,57.01
3263.00,57.03
3262.00,57.05
3261.00,57.07
3260.00,57.09
3259.00,57.10
3258.00,57.11
3257.00,57.12
3256.00,57.14
3255.00,57.18
3254.00,57.22
3253.00,57.27
3252.00,57.31
3251.00,57.34
3250.00,57.36
3249.00,57.37
3248.00,57.39
3247.00,57.41
3246.00,57.45
3245.00,57.51
3244.00,57.58
3243.00,57.64
3242.00,57.70
3241.00,57.75
3240.00,57.80
3239.00,57.84
3238.00,57.89
3237.00,57.93
3236.00,57.96
3235.00,57.98
3234.00,58.02
3233.00,58.08
3232.00,58.16
3231.00,58.26
3230.00,58.35
3229.00,58.43
3228.00,58.51
3227.00,58.58
3226.00,58.66
3225.00,58.73
3224.00,58.81
3223.00,58.89
3222.00,58.96
3221.00,59.03
3220.00,59.10
3219.00,59.18
3218.00,59.26
3217.00,59.36
3216.00,59.45
3215.00,59.54
3214.00,59.63
3213.00,59.73
3212.00,59.84
3211.00,59.95
3210.00,60.05
3209.00,60.15
3208.00,60.26
3207.00,60.36
3206.00,60.46
3205.00,60.58
3204.00,60.69
3203.00,60.81
3202.00,60.92
3201.00,61.04
3200.00,61.16
3199.00,61.28
3198.00,61.40
3197.00,61.53
3196.00,61.65
3195.00,61.78
3194.00,61.90
3193.00,62.03
3192.00,62.15
3191.00,62.28
3190.00,62.41
3189.00,62.55
3188.00,62.69
3187.00,62.83
3186.00,62.96
3185.00,63.11
3184.00,63.25
3183.00,63.39
3182.00,63.54
3181.00,63.69
3180.00,63.84
3179.00,63.98
3178.00,64.13
3177.00,64.29
3176.00,64.44
3175.00,64.60
3174.00,64.74
3173.00,64.89
3172.00,65.05
3171.00,65.20
3170.00,65.35
3169.00,65.51
3168.00,65.67
3167.00,65.82
3166.00,65.97
3165.00,66.13
3164.00,66.29
3163.00,66.45
3162.00,66.61
3161.00,66.77
3160.00,66.93
3159.00,67.09
3158.00,67.24
3157.00,67.39
3156.00,67.53
3155.00,67.66
3154.00,67.80
3153.00,67.94
3152.00,68.11
3151.00,68.29
3150.00,68.49
3149.00,68.68
3148.00,68.86
3147.00,69.03
3146.00,69.20
3145.00,69.36
3144.00,69.52
3143.00,69.68
3142.00,69.82
3141.00,69.96
3140.00,70.10
3139.00,70.26
3138.00,70.43
3137.00,70.62
3136.00,70.80
3135.00,70.98
3134.00,71.14
3133.00,71.31
3132.00,71.46
3131.00,71.61
3130.00,71.77
3129.00,71.93
3128.00,72.11
3127.00,72.27
3126.00,72.43
3125.00,72.59
3124.00,72.73
3123.00,72.87
3122.00,73.01
3121.00,73.14
3120.00,73.29
3119.00,73.44
3118.00,73.59
3117.00,73.75
3116.00,73.91
3115.00,74.08
3114.00,74.25
3113.00,74.42
3112.00,74.58
3111.00,74.73
3110.00,74.87
3109.00,75.02
3108.00,75.18
3107.00,75.34
3106.00,75.50
3105.00,75.66
3104.00,75.80
3103.00,75.94
3102.00,76.06
3101.00,76.19
3100.00,76.33
3099.00,76.48
3098.00,76.64
3097.00,76.80
3096.00,76.95
3095.00,77.09
3094.00,77.23
3093.00,77.36
3092.00,77.49
3091.00,77.61
3090.00,77.74
3089.00,77.88
3088.00,78.01
3087.00,78.15
3086.00,78.28
3085.00,78.41
3084.00,78.55
3083.00,78.67
3082.00,78.80
3081.00,78.93
3080.00,79.06
3079.00,79.19
3078.00,79.32
3077.00,79.47
3076.00,79.62
3075.00,79.76
3074.00,79.90
3073.00,80.03
3072.00,80.16
3071.00,80.28
3070.00,80.39
3069.00,80.50
3068.00,80.62
3067.00,80.73
3066.00,80.86
3065.00,80.99
3064.00,81.12
3063.00,81.26
3062.00,81.39
3061.00,81.51
3060.00,81.63
3059.00,81.75
3058.00,81.85
3057.00,81.96
3056.00,82.08
3055.00,82.20
3054.00,82.32
3053.00,82.43
3052.00,82.55
3051.00,82.66
3050.00,82.76
3049.00,82.88
3048.00,82.99
3047.00,83.10
3046.00,83.20
3045.00,83.31
3044.00,83.41
3043.00,83.52
3042.00,83.62
3041.00,83.73
3040.00,83.84
3039.00,83.95
3038.00,84.05
3037.00,84.15
3036.00,84.24
3035.00,84.32
3034.00,84.41
3033.00,84.51
3032.00,84.61
3031.00,84.71
3030.00,84.82
3029.00,84.92
3028.00,85.02
3027.00,85.11
3026.00,85.20
3025.00,85.28
3024.00,85.37
3023.00,85.46
3022.00,85.55
3021.00,85.63
3020.00,85.71
3019.00,85.79
3018.00,85.87
3017.00,85.94
3016.00,86.02
3015.00,86.09
3014.00,86.16
3013.00,86.23
3012.00,86.31
3011.00,86.39
3010.00,86.47
3009.00,86.55
3008.00,86.62
3007.00,86.69
3006.00,86.75
3005.00,86.81
3004.00,86.87
3003.00,86.93
3002.00,86.99
3001.00,87.05
3000.00,87.11
2999.00,87.15
2998.00,87.20
2997.00,87.24
2996.00,87.29
2995.00,87.33
2994.00,87.37
2993.00,87.41
2992.00,87.44
2991.00,87.47
2990.00,87.51
2989.00,87.54
2988.00,87.57
2987.00,87.60
2986.00,87.62
2985.00,87.64
2984.00,87.65
2983.00,87.66
2982.00,87.67
2981.00,87.68
2980.00,87.71
2979.00,87.74
2978.00,87.77
2977.00,87.81
2976.00,87.85
2975.00,87.89
2974.00,87.92
2973.00,87.96
2972.00,88.01
2971.00,88.05
2970.00,88.10
2969.00,88.14
2968.00,88.19
2967.00,88.23
2966.00,88.27
2965.00,88.30
2964.00,88.34
2963.00,88.37
2962.00,88.41
2961.00,88.44
2960.00,88.47
2959.00,88.51
2958.00,88.53
2957.00,88.56
2956.00,88.59
2955.00,88.62
2954.00,88.65
2953.00,88.68
2952.00,88.71
2951.00,88.73
2950.00,88.76
2949.00,88.79
2948.00,88.81
2947.00,88.84
2946.00,88.87
2945.00,88.90
2944.00,88.93
2943.00,88.97
2942.00,89.00
2941.00,89.05
2940.00,89.09
2939.00,89.13
2938.00,89.18
2937.00,89.23
2936.00,89.29
2935.00,89.34
2934.00,89.40
2933.00,89.46
2932.00,89.52
2931.00,89.58
2930.00,89.64
2929.00,89.70
2928.00,89.76
2927.00,89.82
2926.00,89.88
2925.00,89.94
2924.00,90.01
2923.00,90.06
2922.00,90.12
2921.00,90.17
2920.00,90.23
2919.00,90.27
2918.00,90.32
2917.00,90.37
2916.00,90.41
2915.00,90.45
2914.00,90.48
2913.00,90.51
2912.00,90.54
2911.00,90.57
2910.00,90.59
2909.00,90.62
2908.00,90.65
2907.00,90.67
2906.00,90.70
2905.00,90.72
2904.00,90.74
2903.00,90.75
2902.00,90.77
2901.00,90.79
2900.00,90.80
2899.00,90.82
2898.00,90.83
2897.00,90.84
2896.00,90.85
2895.00,90.86
2894.00,90.88
2893.00,90.89
2892.00,90.91
2891.00,90.93
2890.00,90.94
2889.00,90.97
2888.00,91.00
2887.00,91.03
2886.00,91.06
2885.00,91.09
2884.00,91.12
2883.00,91.16
2882.00,91.20
2881.00,91.24
2880.00,91.29
2879.00,91.33
2878.00,91.38
2877.00,91.43
2876.00,91.48
2875.00,91.53
2874.00,91.57
2873.00,91.61
2872.00,91.65
2871.00,91.69
2870.00,91.73
2869.00,91.77
2868.00,91.81
2867.00,91.85
2866.00,91.89
2865.00,91.93
2864.00,91.96
2863.00,91.99
2862.00,92.03
2861.00,92.06
2860.00,92.10
2859.00,92.13
2858.00,92.17
2857.00,92.20
2856.00,92.23
2855.00,92.26
2854.00,92.29
2853.00,92.32
2852.00,92.35
2851.00,92.39
2850.00,92.42
2849.00,92.46
2848.00,92.48
2847.00,92.51
2846.00,92.53
2845.00,92.56
2844.00,92.59
2843.00,92.62
2842.00,92.65
2841.00,92.68
2840.00,92.72
2839.00,92.75
2838.00,92.77
2837.00,92.79
2836.00,92.81
2835.00,92.84
2834.00,92.86
2833.00,92.88
2832.00,92.91
2831.00,92.93
2830.00,92.96
2829.00,92.98
2828.00,93.01
2827.00,93.04
2826.00,93.06
2825.00,93.09
2824.00,93.11
2823.00,93.13
2822.00,93.15
2821.00,93.18
2820.00,93.20
2819.00,93.22
2818.00,93.24
2817.00,93.27
2816.00,93.29
2815.00,93.31
2814.00,93.33
2813.00,93.35
2812.00,93.38
2811.00,93.40
2810.00,93.42
2809.00,93.44
2808.00,93.45
2807.00,93.47
2806.00,93.49
2805.00,93.51
2804.00,93.53
2803.00,93.54
2802.00,93.56
2801.00,93.58
2800.00,93.60
2799.00,93.62
2798.00,93.64
2797.00,93.66
2796.00,93.67
2795.00,93.69
2794.00,93.70
2793.00,93.72
2792.00,93.75
2791.00,93.76
2790.00,93.78
2789.00,93.79
2788.00,93.80
2787.00,93.81
2786.00,93.83
2785.00,93.84
2784.00,93.85
2783.00,93.87
2782.00,93.88
2781.00,93.90
2780.00,93.91
2779.00,93.93
2778.00,93.94
2777.00,93.96
2776.00,93.98
2775.00,93.99
2774.00,94.00
2773.00,94.02
2772.00,94.03
2771.00,94.04
2770.00,94.05
2769.00,94.06
2768.00,94.07
2767.00,94.09
2766.00,94.10
2765.00,94.11
2764.00,94.13
2763.00,94.14
2762.00,94.15
2761.00,94.16
2760.00,94.17
2759.00,94.18
2758.00,94.19
2757.00,94.21
2756.00,94.22
2755.00,94.23
2754.00,94.23
2753.00,94.25
2752.00,94.26
2751.00,94.27
2750.00,94.28
2749.00,94.29
2748.00,94.31
2747.00,94.32
2746.00,94.32
2745.00,94.33
2744.00,94.34
2743.00,94.35
2742.00,94.36
2741.00,94.37
2740.00,94.38
2739.00,94.39
2738.00,94.40
2737.00,94.41
2736.00,94.42
2735.00,94.43
2734.00,94.43
2733.00,94.44
2732.00,94.45
2731.00,94.47
2730.00,94.48
2729.00,94.49
2728.00,94.50
2727.00,94.51
2726.00,94.52
2725.00,94.53
2724.00,94.54
2723.00,94.54
2722.00,94.55
2721.00,94.56
2720.00,94.57
2719.00,94.58
2718.00,94.59
2717.00,94.59
2716.00,94.61
2715.00,94.61
2714.00,94.62
2713.00,94.63
2712.00,94.64
2711.00,94.64
2710.00,94.65
2709.00,94.66
2708.00,94.67
2707.00,94.68
2706.00,94.69
2705.00,94.70
2704.00,94.71
2703.00,94.71
2702.00,94.72
2701.00,94.73
2700.00,94.73
2699.00,94.74
2698.00,94.75
2697.00,94.75
2696.00,94.76
2695.00,94.77
2694.00,94.77
2693.00,94.78
2692.00,94.78
2691.00,94.79
2690.00,94.80
2689.00,94.80
2688.00,94.81
2687.00,94.82
2686.00,94.82
2685.00,94.83
2684.00,94.83
2683.00,94.84
2682.00,94.84
2681.00,94.85
2680.00,94.86
2679.00,94.86
2678.00,94.87
2677.00,94.87
2676.00,94.88
2675.00,94.89
2674.00,94.89
2673.00,94.90
2672.00,94.91
2671.00,94.91
2670.00,94.91
2669.00,94.92
2668.00,94.92
2667.00,94.93
2666.00,94.93
2665.00,94.94
2664.00,94.95
2663.00,94.96
2662.00,94.96
2661.00,94.97
2660.00,94.98
2659.00,94.98
2658.00,94.99
2657.00,95.00
2656.00,95.01
2655.00,95.01
2654.00,95.02
2653.00,95.02
2652.00,95.03
2651.00,95.03
2650.00,95.04
2649.00,95.05
2648.00,95.05
2647.00,95.06
2646.00,95.07
2645.00,95.07
2644.00,95.08
2643.00,95.09
2642.00,95.09
2641.00,95.09
2640.00,95.10
2639.00,95.10
2638.00,95.11
2637.00,95.12
2636.00,95.12
2635.00,95.13
2634.00,95.13
2633.00,95.14
2632.00,95.15
2631.00,95.15
2630.00,95.16
2629.00,95.16
2628.00,95.17
2627.00,95.17
2626.00,95.18
2625.00,95.18
2624.00,95.19
2623.00,95.19
2622.00,95.19
2621.00,95.20
2620.00,95.20
2619.00,95.20
2618.00,95.21
2617.00,95.21
2616.00,95.22
2615.00,95.23
2614.00,95.23
2613.00,95.24
2612.00,95.25
2611.00,95.25
2610.00,95.25
2609.00,95.25
2608.00,95.26
2607.00,95.26
2606.00,95.27
2605.00,95.27
2604.00,95.28
2603.00,95.28
2602.00,95.28
2601.00,95.28
2600.00,95.29
2599.00,95.29
2598.00,95.29
2597.00,95.30
2596.00,95.30
2595.00,95.31
2594.00,95.31
2593.00,95.31
2592.00,95.31
2591.00,95.31
2590.00,95.31
2589.00,95.32
2588.00,95.32
2587.00,95.32
2586.00,95.32
2585.00,95.32
2584.00,95.33
2583.00,95.33
2582.00,95.33
2581.00,95.34
2580.00,95.35
2579.00,95.35
2578.00,95.35
2577.00,95.35
2576.00,95.36
2575.00,95.35
2574.00,95.35
2573.00,95.36
2572.00,95.36
2571.00,95.36
2570.00,95.36
2569.00,95.37
2568.00,95.37
2567.00,95.38
2566.00,95.38
2565.00,95.38
2564.00,95.38
2563.00,95.38
2562.00,95.38
2561.00,95.39
2560.00,95.39
2559.00,95.39
2558.00,95.38
2557.00,95.39
2556.00,95.39
2555.00,95.39
2554.00,95.39
2553.00,95.39
2552.00,95.40
2551.00,95.40
2550.00,95.40
2549.00,95.40
2548.00,95.41
2547.00,95.41
2546.00,95.41
2545.00,95.41
2544.00,95.41
2543.00,95.41
2542.00,95.40
2541.00,95.40
2540.00,95.41
2539.00,95.41
2538.00,95.41
2537.00,95.41
2536.00,95.42
2535.00,95.42
2534.00,95.42
2533.00,95.42
2532.00,95.43
2531.00,95.43
2530.00,95.43
2529.00,95.43
2528.00,95.43
2527.00,95.43
2526.00,95.42
2525.00,95.42
2524.00,95.42
2523.00,95.42
2522.00,95.42
2521.00,95.42
2520.00,95.42
2519.00,95.43
2518.00,95.43
2517.00,95.44
2516.00,95.44
2515.00,95.44
2514.00,95.44
2513.00,95.44
2512.00,95.44
2511.00,95.44
2510.00,95.44
2509.00,95.44
2508.00,95.45
2507.00,95.45
2506.00,95.45
2505.00,95.45
2504.00,95.45
2503.00,95.44
2502.00,95.44
2501.00,95.44
2500.00,95.45
2499.00,95.45
2498.00,95.45
2497.00,95.46
2496.00,95.46
2495.00,95.46
2494.00,95.46
2493.00,95.46
2492.00,95.47
2491.00,95.46
2490.00,95.46
2489.00,95.46
2488.00,95.46
2487.00,95.46
2486.00,95.46
2485.00,95.46
2484.00,95.47
2483.00,95.47
2482.00,95.47
2481.00,95.47
2480.00,95.47
2479.00,95.47
2478.00,95.46
2477.00,95.47
2476.00,95.47
2475.00,95.47
2474.00,95.47
2473.00,95.48
2472.00,95.48
2471.00,95.48
2470.00,95.48
2469.00,95.48
2468.00,95.49
2467.00,95.48
2466.00,95.48
2465.00,95.48
2464.00,95.48
2463.00,95.48
2462.00,95.48
2461.00,95.48
2460.00,95.49
2459.00,95.49
2458.00,95.48
2457.00,95.48
2456.00,95.48
2455.00,95.48
2454.00,95.48
2453.00,95.48
2452.00,95.49
2451.00,95.49
2450.00,95.49
2449.00,95.49
2448.00,95.49
2447.00,95.49
2446.00,95.49
2445.00,95.49
2444.00,95.49
2443.00,95.49
2442.00,95.49
2441.00,95.49
2440.00,95.49
2439.00,95.49
2438.00,95.49
2437.00,95.49
2436.00,95.49
2435.00,95.49
2434.00,95.49
2433.00,95.49
2432.00,95.49
2431.00,95.49
2430.00,95.49
2429.00,95.49
2428.00,95.49
2427.00,95.49
2426.00,95.49
2425.00,95.49
2424.00,95.49
2423.00,95.49
2422.00,95.49
2421.00,95.49
2420.00,95.49
2419.00,95.48
2418.00,95.48
2417.00,95.49
2416.00,95.49
2415.00,95.49
2414.00,95.49
2413.00,95.49
2412.00,95.49
2411.00,95.48
2410.00,95.48
2409.00,95.48
2408.00,95.49
2407.00,95.49
2406.00,95.49
2405.00,95.48
2404.00,95.48
2403.00,95.48
2402.00,95.48
2401.00,95.48
2400.00,95.48
2399.00,95.48
2398.00,95.48
2397.00,95.48
2396.00,95.48
2395.00,95.48
2394.00,95.47
2393.00,95.47
2392.00,95.47
2391.00,95.46
2390.00,95.46
2389.00,95.44
2388.00,95.43
2387.00,95.41
2386.00,95.38
2385.00,95.35
2384.00,95.33
2383.00,95.32
2382.00,95.33
2381.00,95.35
2380.00,95.40
2379.00,95.45
2378.00,95.51
2377.00,95.55
2376.00,95.57
2375.00,95.57
2374.00,95.53
2373.00,95.49
2372.00,95.45
2371.00,95.41
2370.00,95.38
2369.00,95.37
2368.00,95.38
2367.00,95.38
2366.00,95.39
2365.00,95.41
2364.00,95.43
2363.00,95.43
2362.00,95.43
2361.00,95.43
2360.00,95.42
2359.00,95.40
2358.00,95.39
2357.00,95.40
2356.00,95.42
2355.00,95.41
2354.00,95.40
2353.00,95.39
2352.00,95.39
2351.00,95.39
2350.00,95.38
2349.00,95.38
2348.00,95.37
2347.00,95.36
2346.00,95.37
2345.00,95.37
2344.00,95.36
2343.00,95.33
2342.00,95.31
2341.00,95.33
2340.00,95.36
2339.00,95.37
2338.00,95.38
2337.00,95.38
2336.00,95.38
2335.00,95.36
2334.00,95.34
2333.00,95.32
2332.00,95.32
2331.00,95.31
2330.00,95.29
2329.00,95.27
2328.00,95.24
2327.00,95.21
2326.00,95.18
2325.00,95.18
2324.00,95.19
2323.00,95.21
2322.00,95.22
2321.00,95.23
2320.00,95.24
2319.00,95.23
2318.00,95.22
2317.00,95.21
2316.00,95.20
2315.00,95.20
2314.00,95.20
2313.00,95.19
2312.00,95.18
2311.00,95.16
2310.00,95.15
2309.00,95.14
2308.00,95.13
2307.00,95.13
2306.00,95.13
2305.00,95.13
2304.00,95.13
2303.00,95.11
2302.00,95.10
2301.00,95.09
2300.00,95.08
2299.00,95.08
2298.00,95.07
2297.00,95.07
2296.00,95.08
2295.00,95.08
2294.00,95.08
2293.00,95.08
2292.00,95.09
2291.00,95.10
2290.00,95.10
2289.00,95.11
2288.00,95.11
2287.00,95.11
2286.00,95.11
2285.00,95.10
2284.00,95.10
2283.00,95.09
2282.00,95.08
2281.00,95.08
2280.00,95.08
2279.00,95.08
2278.00,95.07
2277.00,95.07
2276.00,95.06
2275.00,95.06
2274.00,95.05
2273.00,95.05
2272.00,95.04
2271.00,95.03
2270.00,95.02
2269.00,95.01
2268.00,95.00
2267.00,94.99
2266.00,94.98
2265.00,94.97
2264.00,94.97
2263.00,94.97
2262.00,94.96
2261.00,94.95
2260.00,94.95
2259.00,94.94
2258.00,94.93
2257.00,94.92
2256.00,94.92
2255.00,94.91
2254.00,94.90
2253.00,94.89
2252.00,94.89
2251.00,94.88
2250.00,94.87
2249.00,94.87
2248.00,94.88
2247.00,94.87
2246.00,94.87
2245.00,94.86
2244.00,94.85
2243.00,94.84
2242.00,94.83
2241.00,94.83
2240.00,94.83
2239.00,94.82
2238.00,94.81
2237.00,94.80
2236.00,94.80
2235.00,94.79
2234.00,94.78
2233.00,94.77
2232.00,94.77
2231.00,94.76
2230.00,94.75
2229.00,94.74
2228.00,94.73
2227.00,94.72
2226.00,94.71
2225.00,94.71
2224.00,94.70
2223.00,94.70
2222.00,94.69
2221.00,94.69
2220.00,94.69
2219.00,94.68
2218.00,94.67
2217.00,94.66
2216.00,94.66
2215.00,94.65
2214.00,94.64
2213.00,94.64
2212.00,94.63
2211.00,94.62
2210.00,94.60
2209.00,94.59
2208.00,94.59
2207.00,94.58
2206.00,94.58
2205.00,94.58
2204.00,94.58
2203.00,94.57
2202.00,94.56
2201.00,94.56
2200.00,94.56
2199.00,94.55
2198.00,94.54
2197.00,94.52
2196.00,94.51
2195.00,94.50
2194.00,94.50
2193.00,94.50
2192.00,94.49
2191.00,94.48
2190.00,94.47
2189.00,94.47
2188.00,94.47
2187.00,94.46
2186.00,94.45
2185.00,94.45
2184.00,94.44
2183.00,94.43
2182.00,94.41
2181.00,94.40
2180.00,94.40
2179.00,94.39
2178.00,94.39
2177.00,94.39
2176.00,94.39
2175.00,94.39
2174.00,94.38
2173.00,94.38
2172.00,94.38
2171.00,94.37
2170.00,94.35
2169.00,94.35
2168.00,94.34
2167.00,94.33
2166.00,94.33
2165.00,94.33
2164.00,94.34
2163.00,94.34
2162.00,94.32
2161.00,94.31
2160.00,94.30
2159.00,94.28
2158.00,94.27
2157.00,94.28
2156.00,94.29
2155.00,94.30
2154.00,94.30
2153.00,94.30
2152.00,94.30
2151.00,94.30
2150.00,94.30
2149.00,94.30
2148.00,94.30
2147.00,94.30
2146.00,94.30
2145.00,94.30
2144.00,94.30
2143.00,94.31
2142.00,94.31
2141.00,94.32
2140.00,94.32
2139.00,94.32
2138.00,94.32
2137.00,94.33
2136.00,94.33
2135.00,94.33
2134.00,94.33
2133.00,94.34
2132.00,94.36
2131.00,94.36
2130.00,94.37
2129.00,94.38
2128.00,94.38
2127.00,94.39
2126.00,94.39
2125.00,94.40
2124.00,94.41
2123.00,94.41
2122.00,94.41
2121.00,94.42
2120.00,94.43
2119.00,94.44
2118.00,94.44
2117.00,94.45
2116.00,94.45
2115.00,94.45
2114.00,94.46
2113.00,94.46
2112.00,94.47
2111.00,94.47
2110.00,94.47
2109.00,94.47
2108.00,94.48
2107.00,94.48
2106.00,94.49
2105.00,94.49
2104.00,94.50
2103.00,94.50
2102.00,94.50
2101.00,94.51
2100.00,94.51
2099.00,94.51
2098.00,94.51
2097.00,94.53
2096.00,94.54
2095.00,94.54
2094.00,94.54
2093.00,94.55
2092.00,94.56
2091.00,94.57
2090.00,94.58
2089.00,94.59
2088.00,94.61
2087.00,94.61
2086.00,94.62
2085.00,94.63
2084.00,94.64
2083.00,94.64
2082.00,94.65
2081.00,94.66
2080.00,94.67
2079.00,94.67
2078.00,94.67
2077.00,94.68
2076.00,94.69
2075.00,94.69
2074.00,94.70
2073.00,94.71
2072.00,94.72
2071.00,94.72
2070.00,94.73
2069.00,94.74
2068.00,94.74
2067.00,94.74
2066.00,94.74
2065.00,94.75
2064.00,94.76
2063.00,94.77
2062.00,94.78
2061.00,94.79
2060.00,94.81
2059.00,94.82
2058.00,94.83
2057.00,94.84
2056.00,94.86
2055.00,94.86
2054.00,94.87
2053.00,94.88
2052.00,94.89
2051.00,94.90
2050.00,94.90
2049.00,94.91
2048.00,94.91
2047.00,94.90
2046.00,94.90
2045.00,94.91
2044.00,94.93
2043.00,94.93
2042.00,94.93
2041.00,94.94
2040.00,94.95
2039.00,94.96
2038.00,94.97
2037.00,94.99
2036.00,95.01
2035.00,95.03
2034.00,95.03
2033.00,95.04
2032.00,95.06
2031.00,95.07
2030.00,95.08
2029.00,95.09
2028.00,95.10
2027.00,95.11
2026.00,95.11
2025.00,95.12
2024.00,95.13
2023.00,95.13
2022.00,95.13
2021.00,95.14
2020.00,95.16
2019.00,95.17
2018.00,95.18
2017.00,95.20
2016.00,95.21
2015.00,95.22
2014.00,95.24
2013.00,95.26
2012.00,95.28
2011.00,95.29
2010.00,95.29
2009.00,95.29
2008.00,95.30
2007.00,95.30
2006.00,95.31
2005.00,95.33
2004.00,95.35
2003.00,95.36
2002.00,95.37
2001.00,95.38
2000.00,95.39
1999.00,95.40
1998.00,95.41
1997.00,95.43
1996.00,95.44
1995.00,95.46
1994.00,95.47
1993.00,95.49
1992.00,95.50
1991.00,95.50
1990.00,95.50
1989.00,95.51
1988.00,95.52
1987.00,95.53
1986.00,95.55
1985.00,95.56
1984.00,95.57
1983.00,95.57
1982.00,95.58
1981.00,95.59
1980.00,95.61
1979.00,95.62
1978.00,95.62
1977.00,95.62
1976.00,95.63
1975.00,95.63
1974.00,95.64
1973.00,95.66
1972.00,95.67
1971.00,95.67
1970.00,95.67
1969.00,95.68
1968.00,95.68
1967.00,95.69
1966.00,95.70
1965.00,95.72
1964.00,95.73
1963.00,95.74
1962.00,95.75
1961.00,95.76
1960.00,95.77
1959.00,95.78
1958.00,95.79
1957.00,95.82
1956.00,95.83
1955.00,95.84
1954.00,95.85
1953.00,95.85
1952.00,95.86
1951.00,95.86
1950.00,95.87
1949.00,95.87
1948.00,95.87
1947.00,95.88
1946.00,95.89
1945.00,95.91
1944.00,95.92
1943.00,95.93
1942.00,95.93
1941.00,95.94
1940.00,95.94
1939.00,95.94
1938.00,95.95
1937.00,95.97
1936.00,95.99
1935.00,96.00
1934.00,96.00
1933.00,96.01
1932.00,96.02
1931.00,96.02
1930.00,96.02
1929.00,96.03
1928.00,96.04
1927.00,96.04
1926.00,96.05
1925.00,96.06
1924.00,96.06
1923.00,96.06
1922.00,96.06
1921.00,96.07
1920.00,96.07
1919.00,96.07
1918.00,96.07
1917.00,96.09
1916.00,96.10
1915.00,96.10
1914.00,96.11
1913.00,96.12
1912.00,96.13
1911.00,96.13
1910.00,96.13
1909.00,96.13
1908.00,96.13
1907.00,96.13
1906.00,96.14
1905.00,96.15
1904.00,96.16
1903.00,96.16
1902.00,96.16
1901.00,96.17
1900.00,96.18
1899.00,96.18
1898.00,96.18
1897.00,96.19
1896.00,96.19
1895.00,96.19
1894.00,96.20
1893.00,96.20
1892.00,96.22
1891.00,96.23
1890.00,96.24
1889.00,96.25
1888.00,96.24
1887.00,96.22
1886.00,96.21
1885.00,96.21
1884.00,96.22
1883.00,96.23
1882.00,96.23
1881.00,96.24
1880.00,96.24
1879.00,96.24
1878.00,96.24
1877.00,96.24
1876.00,96.24
1875.00,96.24
1874.00,96.24
1873.00,96.25
1872.00,96.25
1871.00,96.24
1870.00,96.24
1869.00,96.24
1868.00,96.24
1867.00,96.24
1866.00,96.24
1865.00,96.24
1864.00,96.24
1863.00,96.24
1862.00,96.24
1861.00,96.24
1860.00,96.25
1859.00,96.25
1858.00,96.25
1857.00,96.26
1856.00,96.26
1855.00,96.26
1854.00,96.25
1853.00,96.25
1852.00,96.25
1851.00,96.25
1850.00,96.25
1849.00,96.24
1848.00,96.24
1847.00,96.22
1846.00,96.19
1845.00,96.17
1844.00,96.17
1843.00,96.19
1842.00,96.21
1841.00,96.22
1840.00,96.23
1839.00,96.22
1838.00,96.23
1837.00,96.23
1836.00,96.22
1835.00,96.22
1834.00,96.22
1833.00,96.23
1832.00,96.24
1831.00,96.25
1830.00,96.26
1829.00,96.26
1828.00,96.26
1827.00,96.25
1826.00,96.26
1825.00,96.25
1824.00,96.24
1823.00,96.21
1822.00,96.19
1821.00,96.18
1820.00,96.18
1819.00,96.18
1818.00,96.18
1817.00,96.17
1816.00,96.17
1815.00,96.16
1814.00,96.15
1813.00,96.15
1812.00,96.15
1811.00,96.14
1810.00,96.14
1809.00,96.12
1808.00,96.11
1807.00,96.10
1806.00,96.10
1805.00,96.11
1804.00,96.12
1803.00,96.13
1802.00,96.13
1801.00,96.11
1800.00,96.09
1799.00,96.05
1798.00,96.02
1797.00,95.99
1796.00,95.96
1795.00,95.95
1794.00,95.93
1793.00,95.93
1792.00,95.93
1791.00,95.94
1790.00,95.94
1789.00,95.93
1788.00,95.91
1787.00,95.90
1786.00,95.90
1785.00,95.90
1784.00,95.89
1783.00,95.88
1782.00,95.87
1781.00,95.85
1780.00,95.82
1779.00,95.79
1778.00,95.77
1777.00,95.76
1776.00,95.75
1775.00,95.72
1774.00,95.69
1773.00,95.65
1772.00,95.63
1771.00,95.63
1770.00,95.62
1769.00,95.60
1768.00,95.56
1767.00,95.54
1766.00,95.53
1765.00,95.52
1764.00,95.49
1763.00,95.47
1762.00,95.44
1761.00,95.41
1760.00,95.38
1759.00,95.34
1758.00,95.31
1757.00,95.28
1756.00,95.24
1755.00,95.20
1754.00,95.16
1753.00,95.12
1752.00,95.06
1751.00,95.01
1750.00,94.97
1749.00,94.93
1748.00,94.86
1747.00,94.81
1746.00,94.77
1745.00,94.74
1744.00,94.71
1743.00,94.69
1742.00,94.65
1741.00,94.59
1740.00,94.50
1739.00,94.43
1738.00,94.39
1737.00,94.34
1736.00,94.25
1735.00,94.13
1734.00,94.02
1733.00,93.97
1732.00,93.94
1731.00,93.91
1730.00,93.87
1729.00,93.81
1728.00,93.73
1727.00,93.65
1726.00,93.58
1725.00,93.49
1724.00,93.39
1723.00,93.28
1722.00,93.20
1721.00,93.14
1720.00,93.08
1719.00,92.98
1718.00,92.81
1717.00,92.59
1716.00,92.40
1715.00,92.27
1714.00,92.17
1713.00,92.07
1712.00,91.96
1711.00,91.84
1710.00,91.71
1709.00,91.59
1708.00,91.47
1707.00,91.32
1706.00,91.14
1705.00,90.95
1704.00,90.77
1703.00,90.59
1702.00,90.38
1701.00,90.11
1700.00,89.80
1699.00,89.56
1698.00,89.39
1697.00,89.19
1696.00,88.92
1695.00,88.64
1694.00,88.42
1693.00,88.24
1692.00,88.04
1691.00,87.80
1690.00,87.53
1689.00,87.26
1688.00,87.02
1687.00,86.81
1686.00,86.61
1685.00,86.34
1684.00,85.91
1683.00,85.49
1682.00,85.20
1681.00,84.95
1680.00,84.68
1679.00,84.41
1678.00,84.16
1677.00,83.90
1676.00,83.56
1675.00,83.18
1674.00,82.86
1673.00,82.62
1672.00,82.37
1671.00,82.04
1670.00,81.66
1669.00,81.27
1668.00,80.94
1667.00,80.68
1666.00,80.46
1665.00,80.24
1664.00,79.95
1663.00,79.61
1662.00,79.30
1661.00,79.05
1660.00,78.83
1659.00,78.62
1658.00,78.44
1657.00,78.30
1656.00,78.17
1655.00,78.00
1654.00,77.75
1653.00,77.42
1652.00,77.19
1651.00,77.13
1650.00,77.11
1649.00,77.04
1648.00,76.89
1647.00,76.68
1646.00,76.53
1645.00,76.47
1644.00,76.45
1643.00,76.41
1642.00,76.37
1641.00,76.35
1640.00,76.35
1639.00,76.35
1638.00,76.36
1637.00,76.38
1636.00,76.42
1635.00,76.50
1634.00,76.63
1633.00,76.77
1632.00,76.89
1631.00,77.01
1630.00,77.15
1629.00,77.36
1628.00,77.60
1627.00,77.83
1626.00,78.06
1625.00,78.29
1624.00,78.57
1623.00,78.90
1622.00,79.25
1621.00,79.58
1620.00,79.84
1619.00,80.07
1618.00,80.34
1617.00,80.72
1616.00,81.18
1615.00,81.58
1614.00,81.90
1613.00,82.18
1612.00,82.46
1611.00,82.75
1610.00,83.05
1609.00,83.36
1608.00,83.68
1607.00,83.97
1606.00,84.25
1605.00,84.52
1604.00,84.78
1603.00,85.03
1602.00,85.28
1601.00,85.52
1600.00,85.76
1599.00,85.97
1598.00,86.16
1597.00,86.35
1596.00,86.54
1595.00,86.72
1594.00,86.89
1593.00,87.06
1592.00,87.21
1591.00,87.35
1590.00,87.48
1589.00,87.61
1588.00,87.74
1587.00,87.85
1586.00,87.94
1585.00,88.04
1584.00,88.13
1583.00,88.20
1582.00,88.27
1581.00,88.34
1580.00,88.41
1579.00,88.44
1578.00,88.45
1577.00,88.45
1576.00,88.48
1575.00,88.54
1574.00,88.58
1573.00,88.61
1572.00,88.61
1571.00,88.59
1570.00,88.58
1569.00,88.58
1568.00,88.59
1567.00,88.58
1566.00,88.57
1565.00,88.56
1564.00,88.57
1563.00,88.57
1562.00,88.58
1561.00,88.62
1560.00,88.71
1559.00,88.73
1558.00,88.69
1557.00,88.68
1556.00,88.69
1555.00,88.71
1554.00,88.76
1553.00,88.84
1552.00,88.93
1551.00,89.01
1550.00,89.08
1549.00,89.15
1548.00,89.20
1547.00,89.25
1546.00,89.29
1545.00,89.33
1544.00,89.38
1543.00,89.42
1542.00,89.46
1541.00,89.56
1540.00,89.76
1539.00,89.96
1538.00,90.06
1537.00,90.11
1536.00,90.15
1535.00,90.19
1534.00,90.26
1533.00,90.37
1532.00,90.47
1531.00,90.54
1530.00,90.58
1529.00,90.63
1528.00,90.69
1527.00,90.74
1526.00,90.77
1525.00,90.81
1524.00,90.86
1523.00,90.91
1522.00,90.97
1521.00,91.08
1520.00,91.20
1519.00,91.29
1518.00,91.33
1517.00,91.36
1516.00,91.41
1515.00,91.45
1514.00,91.48
1513.00,91.50
1512.00,91.54
1511.00,91.60
1510.00,91.64
1509.00,91.65
1508.00,91.65
1507.00,91.74
1506.00,91.86
1505.00,91.90
1504.00,91.91
1503.00,91.92
1502.00,91.92
1501.00,91.94
1500.00,91.97
1499.00,92.02
1498.00,92.03
1497.00,92.03
1496.00,92.05
1495.00,92.09
1494.00,92.11
1493.00,92.12
1492.00,92.11
1491.00,92.11
1490.00,92.09
1489.00,92.09
1488.00,92.10
1487.00,92.09
1486.00,92.06
1485.00,92.03
1484.00,92.00
1483.00,91.96
1482.00,91.91
1481.00,91.86
1480.00,91.81
1479.00,91.78
1478.00,91.74
1477.00,91.68
1476.00,91.60
1475.00,91.48
1474.00,91.31
1473.00,91.15
1472.00,91.05
1471.00,91.00
1470.00,90.94
1469.00,90.88
1468.00,90.82
1467.00,90.76
1466.00,90.70
1465.00,90.62
1464.00,90.56
1463.00,90.53
1462.00,90.50
1461.00,90.48
1460.00,90.48
1459.00,90.47
1458.00,90.42
1457.00,90.38
1456.00,90.42
1455.00,90.52
1454.00,90.58
1453.00,90.63
1452.00,90.69
1451.00,90.75
1450.00,90.80
1449.00,90.85
1448.00,90.89
1447.00,90.92
1446.00,90.93
1445.00,90.93
1444.00,90.93
1443.00,90.93
1442.00,90.92
1441.00,90.92
1440.00,90.92
1439.00,90.92
1438.00,90.92
1437.00,90.91
1436.00,90.91
1435.00,90.91
1434.00,90.91
1433.00,90.90
1432.00,90.89
1431.00,90.90
1430.00,90.90
1429.00,90.89
1428.00,90.87
1427.00,90.86
1426.00,90.86
1425.00,90.84
1424.00,90.82
1423.00,90.81
1422.00,90.80
1421.00,90.79
1420.00,90.79
1419.00,90.79
1418.00,90.78
1417.00,90.77
1416.00,90.75
1415.00,90.73
1414.00,90.72
1413.00,90.71
1412.00,90.71
1411.00,90.71
1410.00,90.72
1409.00,90.73
1408.00,90.76
1407.00,90.80
1406.00,90.83
1405.00,90.85
1404.00,90.87
1403.00,90.89
1402.00,90.91
1401.00,90.94
1400.00,90.97
1399.00,90.99
1398.00,91.01
1397.00,91.02
1396.00,91.04
1395.00,91.07
1394.00,91.09
1393.00,91.09
1392.00,91.07
1391.00,91.06
1390.00,91.04
1389.00,91.02
1388.00,90.99
1387.00,90.97
1386.00,90.97
1385.00,90.98
1384.00,91.00
1383.00,91.02
1382.00,91.03
1381.00,91.04
1380.00,91.06
1379.00,91.07
1378.00,91.08
1377.00,91.09
1376.00,91.11
1375.00,91.12
1374.00,91.13
1373.00,91.14
1372.00,91.14
1371.00,91.15
1370.00,91.16
1369.00,91.18
1368.00,91.22
1367.00,91.25
1366.00,91.28
1365.00,91.31
1364.00,91.35
1363.00,91.36
1362.00,91.36
1361.00,91.36
1360.00,91.35
1359.00,91.33
1358.00,91.31
1357.00,91.30
1356.00,91.29
1355.00,91.28
1354.00,91.27
1353.00,91.26
1352.00,91.25
1351.00,91.23
1350.00,91.20
1349.00,91.18
1348.00,91.16
1347.00,91.13
1346.00,91.11
1345.00,91.08
1344.00,91.06
1343.00,91.04
1342.00,91.01
1341.00,90.98
1340.00,90.96
1339.00,90.95
1338.00,90.96
1337.00,90.99
1336.00,91.03
1335.00,91.06
1334.00,91.08
1333.00,91.11
1332.00,91.14
1331.00,91.17
1330.00,91.19
1329.00,91.21
1328.00,91.24
1327.00,91.26
1326.00,91.27
1325.00,91.28
1324.00,91.29
1323.00,91.30
1322.00,91.30
1321.00,91.29
1320.00,91.29
1319.00,91.30
1318.00,91.31
1317.00,91.33
1316.00,91.35
1315.00,91.37
1314.00,91.39
1313.00,91.40
1312.00,91.43
1311.00,91.46
1310.00,91.47
1309.00,91.49
1308.00,91.50
1307.00,91.52
1306.00,91.53
1305.00,91.54
1304.00,91.56
1303.00,91.57
1302.00,91.59
1301.00,91.60
1300.00,91.61
1299.00,91.62
1298.00,91.63
1297.00,91.63
1296.00,91.64
1295.00,91.64
1294.00,91.64
1293.00,91.64
1292.00,91.63
1291.00,91.62
1290.00,91.61
1289.00,91.60
1288.00,91.60
1287.00,91.60
1286.00,91.61
1285.00,91.62
1284.00,91.63
1283.00,91.64
1282.00,91.65
1281.00,91.66
1280.00,91.67
1279.00,91.69
1278.00,91.70
1277.00,91.72
1276.00,91.73
1275.00,91.74
1274.00,91.73
1273.00,91.73
1272.00,91.73
1271.00,91.73
1270.00,91.72
1269.00,91.72
1268.00,91.72
1267.00,91.71
1266.00,91.71
1265.00,91.70
1264.00,91.70
1263.00,91.69
1262.00,91.67
1261.00,91.65
1260.00,91.63
1259.00,91.62
1258.00,91.60
1257.00,91.58
1256.00,91.57
1255.00,91.55
1254.00,91.52
1253.00,91.50
1252.00,91.48
1251.00,91.46
1250.00,91.44
1249.00,91.42
1248.00,91.41
1247.00,91.39
1246.00,91.37
1245.00,91.36
1244.00,91.35
1243.00,91.35
1242.00,91.35
1241.00,91.36
1240.00,91.37
1239.00,91.39
1238.00,91.42
1237.00,91.45
1236.00,91.48
1235.00,91.52
1234.00,91.56
1233.00,91.60
1232.00,91.64
1231.00,91.69
1230.00,91.73
1229.00,91.77
1228.00,91.82
1227.00,91.86
1226.00,91.89
1225.00,91.92
1224.00,91.95
1223.00,91.98
1222.00,92.00
1221.00,92.01
1220.00,92.03
1219.00,92.03
1218.00,92.03
1217.00,92.03
1216.00,92.03
1215.00,92.02
1214.00,92.00
1213.00,91.99
1212.00,91.97
1211.00,91.96
1210.00,91.94
1209.00,91.93
1208.00,91.93
1207.00,91.93
1206.00,91.93
1205.00,91.94
1204.00,91.96
1203.00,91.98
1202.00,92.01
1201.00,92.05
1200.00,92.10
1199.00,92.16
1198.00,92.21
1197.00,92.26
1196.00,92.31
1195.00,92.36
1194.00,92.40
1193.00,92.45
1192.00,92.49
1191.00,92.53
1190.00,92.57
1189.00,92.60
1188.00,92.64
1187.00,92.67
1186.00,92.69
1185.00,92.71
1184.00,92.74
1183.00,92.76
1182.00,92.77
1181.00,92.77
1180.00,92.76
1179.00,92.74
1178.00,92.72
1177.00,92.70
1176.00,92.69
1175.00,92.67
1174.00,92.64
1173.00,92.60
1172.00,92.56
1171.00,92.51
1170.00,92.45
1169.00,92.38
1168.00,92.32
1167.00,92.25
1166.00,92.17
1165.00,92.09
1164.00,92.02
1163.00,91.95
1162.00,91.88
1161.00,91.81
1160.00,91.74
1159.00,91.67
1158.00,91.60
1157.00,91.54
1156.00,91.48
1155.00,91.43
1154.00,91.39
1153.00,91.36
1152.00,91.35
1151.00,91.34
1150.00,91.34
1149.00,91.36
1148.00,91.39
1147.00,91.43
1146.00,91.47
1145.00,91.51
1144.00,91.56
1143.00,91.60
1142.00,91.62
1141.00,91.65
1140.00,91.66
1139.00,91.66
1138.00,91.65
1137.00,91.62
1136.00,91.58
1135.00,91.53
1134.00,91.45
1133.00,91.36
1132.00,91.25
1131.00,91.11
1130.00,90.95
1129.00,90.79
1128.00,90.63
1127.00,90.46
1126.00,90.30
1125.00,90.14
1124.00,89.99
1123.00,89.83
1122.00,89.67
1121.00,89.51
1120.00,89.35
1119.00,89.18
1118.00,89.02
1117.00,88.88
1116.00,88.75
1115.00,88.65
1114.00,88.56
1113.00,88.51
1112.00,88.48
1111.00,88.48
1110.00,88.50
1109.00,88.54
1108.00,88.59
1107.00,88.66
1106.00,88.74
1105.00,88.83
1104.00,88.92
1103.00,89.02
1102.00,89.11
1101.00,89.21
1100.00,89.31
1099.00,89.41
1098.00,89.49
1097.00,89.56
1096.00,89.63
1095.00,89.68
1094.00,89.71
1093.00,89.73
1092.00,89.72
1091.00,89.70
1090.00,89.64
1089.00,89.56
1088.00,89.47
1087.00,89.35
1086.00,89.21
1085.00,89.06
1084.00,88.92
1083.00,88.79
1082.00,88.67
1081.00,88.57
1080.00,88.50
1079.00,88.46
1078.00,88.44
1077.00,88.45
1076.00,88.48
1075.00,88.52
1074.00,88.56
1073.00,88.59
1072.00,88.62
1071.00,88.63
1070.00,88.61
1069.00,88.56
1068.00,88.49
1067.00,88.39
1066.00,88.26
1065.00,88.11
1064.00,87.94
1063.00,87.75
1062.00,87.53
1061.00,87.30
1060.00,87.06
1059.00,86.82
1058.00,86.57
1057.00,86.33
1056.00,86.10
1055.00,85.87
1054.00,85.64
1053.00,85.40
1052.00,85.16
1051.00,84.91
1050.00,84.65
1049.00,84.39
1048.00,84.14
1047.00,83.92
1046.00,83.72
1045.00,83.55
1044.00,83.43
1043.00,83.35
1042.00,83.30
1041.00,83.28
1040.00,83.30
1039.00,83.34
1038.00,83.39
1037.00,83.47
1036.00,83.57
1035.00,83.68
1034.00,83.80
1033.00,83.94
1032.00,84.09
1031.00,84.26
1030.00,84.43
1029.00,84.62
1028.00,84.82
1027.00,85.04
1026.00,85.26
1025.00,85.49
1024.00,85.74
1023.00,85.99
1022.00,86.25
1021.00,86.50
1020.00,86.75
1019.00,86.99
1018.00,87.22
1017.00,87.44
1016.00,87.64
1015.00,87.83
1014.00,88.00
1013.00,88.15
1012.00,88.29
1011.00,88.41
1010.00,88.51
1009.00,88.59
1008.00,88.66
1007.00,88.70
1006.00,88.72
1005.00,88.71
1004.00,88.69
1003.00,88.64
1002.00,88.57
1001.00,88.48
1000.00,88.39
999.00,88.29
998.00,88.20
997.00,88.13
996.00,88.08
995.00,88.07
994.00,88.09
993.00,88.14
992.00,88.24
991.00,88.36
990.00,88.51
989.00,88.67
988.00,88.84
987.00,89.00
986.00,89.14
985.00,89.27
984.00,89.38
983.00,89.47
982.00,89.54
981.00,89.58
980.00,89.62
979.00,89.65
978.00,89.67
977.00,89.68
976.00,89.70
975.00,89.73
974.00,89.75
973.00,89.77
972.00,89.81
971.00,89.85
970.00,89.87
969.00,89.90
968.00,89.93
967.00,89.94
966.00,89.95
965.00,89.96
964.00,89.97
963.00,89.97
962.00,89.95
961.00,89.93
960.00,89.90
959.00,89.87
958.00,89.82
957.00,89.76
956.00,89.70
955.00,89.63
954.00,89.53
953.00,89.43
952.00,89.31
951.00,89.19
950.00,89.05
949.00,88.92
948.00,88.81
947.00,88.71
946.00,88.62
945.00,88.56
944.00,88.52
943.00,88.48
942.00,88.44
941.00,88.39
940.00,88.34
939.00,88.29
938.00,88.21
937.00,88.13
936.00,88.04
935.00,87.94
934.00,87.82
933.00,87.69
932.00,87.56
931.00,87.43
930.00,87.30
929.00,87.18
928.00,87.07
927.00,86.97
926.00,86.87
925.00,86.79
924.00,86.72
923.00,86.66
922.00,86.60
921.00,86.55
920.00,86.50
919.00,86.45
918.00,86.40
917.00,86.34
916.00,86.29
915.00,86.24
914.00,86.18
913.00,86.12
912.00,86.08
911.00,86.03
910.00,85.97
909.00,85.91
908.00,85.86
907.00,85.80
906.00,85.74
905.00,85.67
904.00,85.60
903.00,85.53
902.00,85.45
901.00,85.37
900.00,85.29
899.00,85.21
898.00,85.12
897.00,85.03
896.00,84.94
895.00,84.84
894.00,84.74
893.00,84.63
892.00,84.53
891.00,84.42
890.00,84.30
889.00,84.19
888.00,84.07
887.00,83.95
886.00,83.81
885.00,83.68
884.00,83.54
883.00,83.41
882.00,83.26
881.00,83.10
880.00,82.95
879.00,82.79
878.00,82.62
877.00,82.45
876.00,82.27
875.00,82.09
874.00,81.90
873.00,81.71
872.00,81.53
871.00,81.34
870.00,81.15
869.00,80.97
868.00,80.80
867.00,80.63
866.00,80.47
865.00,80.31
864.00,80.16
863.00,80.01
862.00,79.85
861.00,79.69
860.00,79.54
859.00,79.38
858.00,79.22
857.00,79.06
856.00,78.91
855.00,78.75
854.00,78.59
853.00,78.43
852.00,78.28
851.00,78.13
850.00,77.98
849.00,77.83
848.00,77.70
847.00,77.56
846.00,77.42
845.00,77.29
844.00,77.16
843.00,77.03
842.00,76.90
841.00,76.77
840.00,76.64
839.00,76.52
838.00,76.39
837.00,76.25
836.00,76.12
835.00,75.99
834.00,75.85
833.00,75.71
832.00,75.57
831.00,75.43
830.00,75.27
829.00,75.12
828.00,74.97
827.00,74.81
826.00,74.64
825.00,74.47
824.00,74.29
823.00,74.11
822.00,73.93
821.00,73.74
820.00,73.55
819.00,73.35
818.00,73.14
817.00,72.94
816.00,72.75
815.00,72.59
814.00,72.43
813.00,72.29
812.00,72.15
811.00,72.02
810.00,71.88
809.00,71.74
808.00,71.61
807.00,71.47
806.00,71.32
805.00,71.17
804.00,71.02
803.00,70.86
802.00,70.70
801.00,70.54
800.00,70.38
799.00,70.22
798.00,70.05
797.00,69.89
796.00,69.73
795.00,69.56
794.00,69.40
793.00,69.23
792.00,69.07
791.00,68.90
790.00,68.73
789.00,68.56
788.00,68.39
787.00,68.23
786.00,68.06
785.00,67.90
784.00,67.73
783.00,67.57
782.00,67.40
781.00,67.24
780.00,67.08
779.00,66.92
778.00,66.75
777.00,66.59
776.00,66.43
775.00,66.27
774.00,66.10
773.00,65.94
772.00,65.78
771.00,65.62
770.00,65.47
769.00,65.31
768.00,65.15
767.00,64.98
766.00,64.82
765.00,64.65
764.00,64.49
763.00,64.33
762.00,64.17
761.00,64.01
760.00,63.85
759.00,63.69
758.00,63.54
757.00,63.38
756.00,63.23
755.00,63.08
754.00,62.92
753.00,62.77
752.00,62.62
751.00,62.47
750.00,62.32
749.00,62.17
748.00,62.03
747.00,61.88
746.00,61.72
745.00,61.57
744.00,61.42
743.00,61.27
742.00,61.12
741.00,60.97
740.00,60.82
739.00,60.68
738.00,60.53
737.00,60.37
736.00,60.22
735.00,60.07
734.00,59.92
733.00,59.77
732.00,59.62
731.00,59.47
730.00,59.32
729.00,59.18
728.00,59.04
727.00,58.89
726.00,58.74
725.00,58.59
724.00,58.44
723.00,58.28
722.00,58.12
721.00,57.96
720.00,57.80
719.00,57.65
718.00,57.52
717.00,57.37
716.00,57.23
715.00,57.08
714.00,56.93
713.00,56.79
712.00,56.64
711.00,56.50
710.00,56.35
709.00,56.21
708.00,56.06
707.00,55.91
706.00,55.77
705.00,55.63
704.00,55.49
703.00,55.35
702.00,55.22
701.00,55.09
700.00,54.96
699.00,54.82
698.00,54.69
697.00,54.56
696.00,54.43
695.00,54.31
694.00,54.18
693.00,54.05
692.00,53.92
691.00,53.80
690.00,53.67
689.00,53.54
688.00,53.41
687.00,53.27
686.00,53.14
685.00,53.00
684.00,52.86
683.00,52.71
682.00,52.57
681.00,52.42
680.00,52.27
679.00,52.13
678.00,51.99
677.00,51.86
676.00,51.72
675.00,51.58
674.00,51.44
673.00,51.31
672.00,51.20
671.00,51.12
670.00,51.07
669.00,51.03
668.00,50.93
667.00,50.73
666.00,50.53
665.00,50.40
664.00,50.29
663.00,50.18
662.00,50.07
661.00,49.97
660.00,49.86
659.00,49.76
658.00,49.65
657.00,49.54
656.00,49.44
655.00,49.33
654.00,49.22
653.00,49.12
652.00,49.00
651.00,48.89
650.00,48.79
649.00,48.69
648.00,48.58
647.00,48.47
646.00,48.38
645.00,48.29
644.00,48.19
643.00,48.10
642.00,48.01
641.00,47.92
640.00,47.82
639.00,47.73
638.00,47.65
637.00,47.57
636.00,47.48
635.00,47.39
634.00,47.30
633.00,47.22
632.00,47.13
631.00,47.05
630.00,46.99
629.00,46.92
628.00,46.83
627.00,46.73
626.00,46.65
625.00,46.57
624.00,46.49
623.00,46.41
622.00,46.34
621.00,46.27
620.00,46.20
619.00,46.14
618.00,46.08
617.00,46.01
616.00,45.93
615.00,45.85
614.00,45.80
613.00,45.74
612.00,45.66
611.00,45.58
610.00,45.51
609.00,45.45
608.00,45.37
607.00,45.29
606.00,45.25
605.00,45.21
604.00,45.15
603.00,45.06
602.00,44.93
601.00,44.80
600.00,44.71
599.00,44.74
598.00,44.83
597.00,44.89
596.00,44.88
595.00,44.85
594.00,44.84
593.00,44.82
592.00,44.78
591.00,44.76
590.00,44.78
589.00,44.81
588.00,44.79
587.00,44.76
586.00,44.75
585.00,44.74
584.00,44.70
583.00,44.65
582.00,44.63
581.00,44.59
580.00,44.53
579.00,44.50
578.00,44.50
577.00,44.49
576.00,44.42
575.00,44.34
574.00,44.29
573.00,44.22
572.00,44.11
571.00,44.04
570.00,44.05
569.00,44.04
568.00,43.94
567.00,43.84
566.00,43.86
565.00,43.95
564.00,44.02
563.00,44.06
562.00,44.08
561.00,44.04
560.00,43.93
559.00,43.87
558.00,43.90
557.00,43.93
556.00,43.90
555.00,43.85
554.00,43.86
553.00,43.88
552.00,43.87
551.00,43.86
550.00,43.90
549.00,43.96
548.00,44.00
547.00,44.07
546.00,44.20
545.00,44.32
544.00,44.38
543.00,44.44
542.00,44.51
541.00,44.50
540.00,44.32
539.00,44.07
538.00,43.91
537.00,43.88
536.00,43.91
535.00,44.04
534.00,44.23
533.00,44.27
532.00,44.04
531.00,43.69
530.00,43.52
529.00,43.52
528.00,43.51
527.00,43.48
526.00,43.46
525.00,43.25
524.00,42.68
523.00,42.07
522.00,41.89
521.00,42.06
520.00,42.34
519.00,43.00
518.00,44.05
517.00,44.80
516.00,44.76
515.00,44.34
514.00,44.53
513.00,44.99
512.00,45.43
511.00,45.44
510.00,45.47
509.00,44.74
508.00,50.37
507.00,63.90
506.00,54.73
505.00,40.78
504.00,57.93
503.00,114.87
502.00,33.40
501.00,31.09
500.00,55.75
499.00,104.82
498.00,53.99
497.00,48.86
496.00,89.69
495.00,114.17
494.00,45.98
493.00,30.64
492.00,86.69
491.00,67.00
490.00,113.87
489.00,46.61
488.00,49.63
487.00,49.95
486.00,128.52
485.00,95.81
484.00,56.92
483.00,27.82
482.00,31.78
481.00,37.99
480.00,58.97
479.00,60.75
478.00,48.07
477.00,79.91
476.00,43.94
475.00,15.48
474.00,53.62
473.00,103.57
472.00,82.12
471.00,79.56
470.00,102.09
469.00,85.32
468.00,49.53
467.00,46.89
466.00,19.57
465.00,24.92
464.00,89.53
463.00,57.00
462.00,67.86
461.00,51.37
460.00,47.46
459.00,61.94
458.00,67.94
457.00,43.48
456.00,57.99
455.00,44.72
454.00,53.78
453.00,159.96
452.00,76.39
451.00,20.01
450.00,57.93
449.00,39.40
448.00,54.35
447.00,113.25
446.00,50.84
445.00,29.38
444.00,58.33
443.00,77.13
442.00,27.58
441.00,14.97
440.00,91.77
439.00,98.00
438.00,68.61
437.00,54.74
436.00,175.12
435.00,90.21
434.00,437.10
433.00,125.96
432.00,360.16
431.00,59.02
430.00,122.84
429.00,118.93
428.00,145.19
427.00,25.18
426.00,122.28
425.00,276.87
424.00,159.08
423.00,46.10
422.00,119.89
421.00,139.92
420.00,104.99
419.00,111.05
418.00,59.52
417.00,2.76
416.00,115.10
415.00,154.53
414.00,90.33
413.00,52.00
412.00,104.86
411.00,86.22
410.00,199.27
409.00,119.65
408.00,308.65
407.00,97.84
406.00,1001.33
405.00,173.65
404.00,161.37
403.00,37.99
402.00,152.16
401.00,121.36
400.00,111.99
