Created as New Dataset,Sample 005 By FTIR User 2.0 Date Friday, April 12 2024
cm-1,%T
4000.00,100.49
3999.00,100.49
3998.00,100.49
3997.00,100.48
3996.00,100.48
3995.00,100.48
3994.00,100.48
3993.00,100.48
3992.00,100.47
3991.00,100.47
3990.00,100.47
3989.00,100.48
3988.00,100.48
3987.00,100.48
3986.00,100.48
3985.00,100.47
3984.00,100.47
3983.00,100.47
3982.00,100.47
3981.00,100.47
3980.00,100.47
3979.00,100.47
3978.00,100.47
3977.00,100.47
3976.00,100.47
3975.00,100.46
3974.00,100.46
3973.00,100.47
3972.00,100.47
3971.00,100.47
3970.00,100.47
3969.00,100.47
3968.00,100.47
3967.00,100.47
3966.00,100.46
3965.00,100.46
3964.00,100.46
3963.00,100.46
3962.00,100.46
3961.00,100.46
3960.00,100.46
3959.00,100.46
3958.00,100.46
3957.00,100.47
3956.00,100.47
3955.00,100.47
3954.00,100.46
3953.00,100.46
3952.00,100.46
3951.00,100.46
3950.00,100.46
3949.00,100.47
3948.00,100.47
3947.00,100.47
3946.00,100.47
3945.00,100.47
3944.00,100.46
3943.00,100.46
3942.00,100.46
3941.00,100.47
3940.00,100.48
3939.00,100.48
3938.00,100.48
3937.00,100.48
3936.00,100.47
3935.00,100.47
3934.00,100.47
3933.00,100.47
3932.00,100.47
3931.00,100.47
3930.00,100.47
3929.00,100.46
3928.00,100.46
3927.00,100.45
3926.00,100.45
3925.00,100.45
3924.00,100.45
3923.00,100.46
3922.00,100.46
3921.00,100.47
3920.00,100.46
3919.00,100.46
3918.00,100.46
3917.00,100.47
3916.00,100.47
3915.00,100.47
3914.00,100.47
3913.00,100.47
3912.00,100.47
3911.00,100.47
3910.00,100.46
3909.00,100.46
3908.00,100.46
3907.00,100.47
3906.00,100.47
3905.00,100.47
3904.00,100.47
3903.00,100.47
3902.00,100.47
3901.00,100.47
3900.00,100.47
3899.00,100.47
3898.00,100.47
3897.00,100.47
3896.00,100.46
3895.00,100.46
3894.00,100.47
3893.00,100.47
3892.00,100.48
3891.00,100.48
3890.00,100.48
3889.00,100.48
3888.00,100.48
3887.00,100.48
3886.00,100.47
3885.00,100.45
3884.00,100.46
3883.00,100.46
3882.00,100.47
3881.00,100.47
3880.00,100.46
3879.00,100.46
3878.00,100.46
3877.00,100.47
3876.00,100.46
3875.00,100.45
3874.00,100.44
3873.00,100.45
3872.00,100.46
3871.00,100.47
3870.00,100.46
3869.00,100.45
3868.00,100.45
3867.00,100.45
3866.00,100.44
3865.00,100.44
3864.00,100.44
3863.00,100.45
3862.00,100.46
3861.00,100.47
3860.00,100.46
3859.00,100.45
3858.00,100.44
3857.00,100.44
3856.00,100.46
3855.00,100.48
3854.00,100.48
3853.00,100.47
3852.00,100.47
3851.00,100.47
3850.00,100.45
3849.00,100.44
3848.00,100.43
3847.00,100.43
3846.00,100.43
3845.00,100.43
3844.00,100.43
3843.00,100.43
3842.00,100.44
3841.00,100.45
3840.00,100.46
3839.00,100.46
3838.00,100.45
3837.00,100.45
3836.00,100.45
3835.00,100.44
3834.00,100.44
3833.00,100.43
3832.00,100.42
3831.00,100.41
3830.00,100.41
3829.00,100.41
3828.00,100.42
3827.00,100.41
3826.00,100.41
3825.00,100.41
3824.00,100.42
3823.00,100.44
3822.00,100.43
3821.00,100.41
3820.00,100.41
3819.00,100.42
3818.00,100.42
3817.00,100.41
3816.00,100.39
3815.00,100.38
3814.00,100.39
3813.00,100.39
3812.00,100.39
3811.00,100.39
3810.00,100.40
3809.00,100.41
3808.00,100.42
3807.00,100.41
3806.00,100.40
3805.00,100.40
3804.00,100.40
3803.00,100.39
3802.00,100.37
3801.00,100.36
3800.00,100.36
3799.00,100.36
3798.00,100.36
3797.00,100.35
3796.00,100.34
3795.00,100.33
3794.00,100.34
3793.00,100.34
3792.00,100.33
3791.00,100.33
3790.00,100.33
3789.00,100.33
3788.00,100.33
3787.00,100.33
3786.00,100.33
3785.00,100.32
3784.00,100.32
3783.00,100.32
3782.00,100.32
3781.00,100.31
3780.00,100.31
3779.00,100.30
3778.00,100.31
3777.00,100.31
3776.00,100.31
3775.00,100.30
3774.00,100.29
3773.00,100.29
3772.00,100.29
3771.00,100.29
3770.00,100.28
3769.00,100.28
3768.00,100.28
3767.00,100.28
3766.00,100.27
3765.00,100.25
3764.00,100.25
3763.00,100.24
3762.00,100.24
3761.00,100.24
3760.00,100.23
3759.00,100.23
3758.00,100.23
3757.00,100.23
3756.00,100.23
3755.00,100.23
3754.00,100.22
3753.00,100.21
3752.00,100.21
3751.00,100.21
3750.00,100.20
3749.00,100.18
3748.00,100.17
3747.00,100.17
3746.00,100.17
3745.00,100.15
3744.00,100.14
3743.00,100.13
3742.00,100.12
3741.00,100.11
3740.00,100.09
3739.00,100.08
3738.00,100.07
3737.00,100.06
3736.00,100.05
3735.00,100.05
3734.00,100.05
3733.00,100.04
3732.00,100.02
3731.00,99.99
3730.00,99.97
3729.00,99.96
3728.00,99.95
3727.00,99.93
3726.00,99.92
3725.00,99.92
3724.00,99.92
3723.00,99.92
3722.00,99.92
3721.00,99.91
3720.00,99.92
3719.00,99.91
3718.00,99.90
3717.00,99.89
3716.00,99.87
3715.00,99.86
3714.00,99.84
3713.00,99.81
3712.00,99.77
3711.00,99.74
3710.00,99.72
3709.00,99.70
3708.00,99.69
3707.00,99.67
3706.00,99.64
3705.00,99.62
3704.00,99.60
3703.00,99.58
3702.00,99.55
3701.00,99.52
3700.00,99.49
3699.00,99.46
3698.00,99.43
3697.00,99.40
3696.00,99.36
3695.00,99.33
3694.00,99.30
3693.00,99.27
3692.00,99.24
3691.00,99.20
3690.00,99.15
3689.00,99.08
3688.00,99.02
3687.00,98.95
3686.00,98.89
3685.00,98.84
3684.00,98.78
3683.00,98.72
3682.00,98.67
3681.00,98.61
3680.00,98.54
3679.00,98.49
3678.00,98.45
3677.00,98.38
3676.00,98.27
3675.00,98.15
3674.00,98.06
3673.00,97.99
3672.00,97.92
3671.00,97.81
3670.00,97.67
3669.00,97.56
3668.00,97.47
3667.00,97.39
3666.00,97.30
3665.00,97.21
3664.00,97.11
3663.00,97.01
3662.00,96.91
3661.00,96.81
3660.00,96.72
3659.00,96.63
3658.00,96.53
3657.00,96.42
3656.00,96.29
3655.00,96.18
3654.00,96.08
3653.00,96.00
3652.00,95.91
3651.00,95.79
3650.00,95.65
3649.00,95.50
3648.00,95.36
3647.00,95.24
3646.00,95.13
3645.00,95.03
3644.00,94.93
3643.00,94.82
3642.00,94.71
3641.00,94.60
3640.00,94.49
3639.00,94.38
3638.00,94.27
3637.00,94.16
3636.00,94.06
3635.00,93.95
3634.00,93.84
3633.00,93.74
3632.00,93.66
3631.00,93.58
3630.00,93.45
3629.00,93.29
3628.00,93.16
3627.00,93.05
3626.00,92.97
3625.00,92.88
3624.00,92.78
3623.00,92.68
3622.00,92.58
3621.00,92.47
3620.00,92.35
3619.00,92.23
3618.00,92.11
3617.00,92.01
3616.00,91.91
3615.00,91.81
3614.00,91.69
3613.00,91.58
3612.00,91.47
3611.00,91.37
3610.00,91.26
3609.00,91.13
3608.00,91.00
3607.00,90.88
3606.00,90.78
3605.00,90.68
3604.00,90.57
3603.00,90.46
3602.00,90.34
3601.00,90.21
3600.00,90.09
3599.00,89.99
3598.00,89.89
3597.00,89.79
3596.00,89.67
3595.00,89.54
3594.00,89.41
3593.00,89.30
3592.00,89.20
3591.00,89.10
3590.00,89.00
3589.00,88.87
3588.00,88.71
3587.00,88.56
3586.00,88.43
3585.00,88.33
3584.00,88.23
3583.00,88.13
3582.00,88.01
3581.00,87.89
3580.00,87.77
3579.00,87.64
3578.00,87.52
3577.00,87.40
3576.00,87.28
3575.00,87.16
3574.00,87.03
3573.00,86.90
3572.00,86.78
3571.00,86.65
3570.00,86.53
3569.00,86.41
3568.00,86.27
3567.00,86.12
3566.00,85.99
3565.00,85.88
3564.00,85.76
3563.00,85.63
3562.00,85.50
3561.00,85.36
3560.00,85.22
3559.00,85.09
3558.00,84.97
3557.00,84.84
3556.00,84.72
3555.00,84.59
3554.00,84.45
3553.00,84.30
3552.00,84.16
3551.00,84.03
3550.00,83.90
3549.00,83.77
3548.00,83.62
3547.00,83.46
3546.00,83.30
3545.00,83.16
3544.00,83.05
3543.00,82.95
3542.00,82.84
3541.00,82.73
3540.00,82.60
3539.00,82.46
3538.00,82.31
3537.00,82.17
3536.00,82.04
3535.00,81.92
3534.00,81.82
3533.00,81.70
3532.00,81.58
3531.00,81.44
3530.00,81.31
3529.00,81.17
3528.00,81.04
3527.00,80.90
3526.00,80.76
3525.00,80.62
3524.00,80.48
3523.00,80.36
3522.00,80.26
3521.00,80.16
3520.00,80.06
3519.00,79.93
3518.00,79.80
3517.00,79.66
3516.00,79.52
3515.00,79.38
3514.00,79.26
3513.00,79.14
3512.00,79.03
3511.00,78.91
3510.00,78.79
3509.00,78.67
3508.00,78.56
3507.00,78.43
3506.00,78.30
3505.00,78.15
3504.00,77.99
3503.00,77.84
3502.00,77.73
3501.00,77.63
3500.00,77.52
3499.00,77.41
3498.00,77.28
3497.00,77.15
3496.00,77.03
3495.00,76.92
3494.00,76.82
3493.00,76.72
3492.00,76.61
3491.00,76.50
3490.00,76.37
3489.00,76.23
3488.00,76.10
3487.00,75.98
3486.00,75.88
3485.00,75.79
3484.00,75.68
3483.00,75.56
3482.00,75.42
3481.00,75.28
3480.00,75.16
3479.00,75.06
3478.00,74.98
3477.00,74.88
3476.00,74.77
3475.00,74.66
3474.00,74.54
3473.00,74.42
3472.00,74.28
3471.00,74.13
3470.00,73.99
3469.00,73.85
3468.00,73.74
3467.00,73.64
3466.00,73.56
3465.00,73.48
3464.00,73.39
3463.00,73.29
3462.00,73.17
3461.00,73.05
3460.00,72.95
3459.00,72.86
3458.00,72.77
3457.00,72.68
3456.00,72.58
3455.00,72.48
3454.00,72.37
3453.00,72.27
3452.00,72.16
3451.00,72.05
3450.00,71.94
3449.00,71.82
3448.00,71.70
3447.00,71.59
3446.00,71.50
3445.00,71.41
3444.00,71.33
3443.00,71.23
3442.00,71.13
3441.00,71.01
3440.00,70.88
3439.00,70.75
3438.00,70.61
3437.00,70.48
3436.00,70.37
3435.00,70.28
3434.00,70.20
3433.00,70.12
3432.00,70.03
3431.00,69.94
3430.00,69.85
3429.00,69.76
3428.00,69.69
3427.00,69.62
3426.00,69.55
3425.00,69.48
3424.00,69.39
3423.00,69.30
3422.00,69.20
3421.00,69.10
3420.00,69.03
3419.00,68.96
3418.00,68.89
3417.00,68.81
3416.00,68.71
3415.00,68.60
3414.00,68.49
3413.00,68.40
3412.00,68.32
3411.00,68.24
3410.00,68.17
3409.00,68.10
3408.00,68.04
3407.00,67.99
3406.00,67.92
3405.00,67.85
3404.00,67.75
3403.00,67.65
3402.00,67.56
3401.00,67.48
3400.00,67.42
3399.00,67.38
3398.00,67.34
3397.00,67.30
3396.00,67.25
3395.00,67.18
3394.00,67.11
3393.00,67.05
3392.00,67.00
3391.00,66.97
3390.00,66.95
3389.00,66.93
3388.00,66.91
3387.00,66.87
3386.00,66.84
3385.00,66.79
3384.00,66.75
3383.00,66.70
3382.00,66.65
3381.00,66.60
3380.00,66.55
3379.00,66.51
3378.00,66.47
3377.00,66.43
3376.00,66.39
3375.00,66.36
3374.00,66.33
3373.00,66.28
3372.00,66.23
3371.00,66.17
3370.00,66.12
3369.00,66.08
3368.00,66.04
3367.00,66.02
3366.00,66.01
3365.00,65.99
3364.00,65.96
3363.00,65.93
3362.00,65.88
3361.00,65.84
3360.00,65.81
3359.00,65.78
3358.00,65.75
3357.00,65.72
3356.00,65.68
3355.00,65.63
3354.00,65.58
3353.00,65.52
3352.00,65.46
3351.00,65.41
3350.00,65.37
3349.00,65.34
3348.00,65.30
3347.00,65.26
3346.00,65.20
3345.00,65.15
3344.00,65.09
3343.00,65.03
3342.00,64.98
3341.00,64.93
3340.00,64.88
3339.00,64.84
3338.00,64.79
3337.00,64.75
3336.00,64.71
3335.00,64.68
3334.00,64.64
3333.00,64.60
3332.00,64.57
3331.00,64.53
3330.00,64.49
3329.00,64.45
3328.00,64.41
3327.00,64.37
3326.00,64.34
3325.00,64.31
3324.00,64.28
3323.00,64.25
3322.00,64.23
3321.00,64.21
3320.00,64.19
3319.00,64.17
3318.00,64.15
3317.00,64.13
3316.00,64.11
3315.00,64.10
3314.00,64.08
3313.00,64.07
3312.00,64.07
3311.00,64.06
3310.00,64.06
3309.00,64.06
3308.00,64.06
3307.00,64.06
3306.00,64.05
3305.00,64.04
3304.00,64.03
3303.00,64.03
3302.00,64.02
3301.00,64.01
3300.00,64.01
3299.00,64.02
3298.00,64.02
3297.00,64.03
3296.00,64.04
3295.00,64.05
3294.00,64.05
3293.00,64.06
3292.00,64.06
3291.00,64.05
3290.00,64.05
3289.00,64.05
3288.00,64.05
3287.00,64.06
3286.00,64.07
3285.00,64.08
3284.00,64.10
3283.00,64.11
3282.00,64.12
3281.00,64.14
3280.00,64.16
3279.00,64.18
3278.00,64.21
3277.00,64.24
3276.00,64.28
3275.00,64.32
3274.00,64.36
3273.00,64.40
3272.00,64.44
3271.00,64.47
3270.00,64.50
3269.00,64.52
3268.00,64.54
3267.00,64.56
3266.00,64.58
3265.00,64.62
3264.00,64.66
3263.00,64.70
3262.00,64.75
3261.00,64.80
3260.00,64.85
3259.00,64.90
3258.00,64.96
3257.00,65.01
3256.00,65.06
3255.00,65.11
3254.00,65.16
3253.00,65.22
3252.00,65.27
3251.00,65.33
3250.00,65.40
3249.00,65.46
3248.00,65.53
3247.00,65.58
3246.00,65.64
3245.00,65.69
3244.00,65.75
3243.00,65.81
3242.00,65.87
3241.00,65.93
3240.00,66.00
3239.00,66.06
3238.00,66.13
3237.00,66.20
3236.00,66.27
3235.00,66.35
3234.00,66.42
3233.00,66.50
3232.00,66.56
3231.00,66.63
3230.00,66.70
3229.00,66.77
3228.00,66.85
3227.00,66.93
3226.00,67.01
3225.00,67.10
3224.00,67.18
3223.00,67.25
3222.00,67.34
3221.00,67.42
3220.00,67.51
3219.00,67.61
3218.00,67.70
3217.00,67.79
3216.00,67.89
3215.00,67.98
3214.00,68.08
3213.00,68.18
3212.00,68.28
3211.00,68.38
3210.00,68.49
3209.00,68.60
3208.00,68.71
3207.00,68.82
3206.00,68.93
3205.00,69.04
3204.00,69.16
3203.00,69.27
3202.00,69.39
3201.00,69.51
3200.00,69.63
3199.00,69.76
3198.00,69.88
3197.00,70.01
3196.00,70.15
3195.00,70.28
3194.00,70.41
3193.00,70.54
3192.00,70.67
3191.00,70.81
3190.00,70.94
3189.00,71.08
3188.00,71.22
3187.00,71.36
3186.00,71.51
3185.00,71.65
3184.00,71.79
3183.00,71.94
3182.00,72.08
3181.00,72.23
3180.00,72.37
3179.00,72.52
3178.00,72.67
3177.00,72.83
3176.00,72.98
3175.00,73.14
3174.00,73.29
3173.00,73.44
3172.00,73.59
3171.00,73.74
3170.00,73.89
3169.00,74.04
3168.00,74.20
3167.00,74.36
3166.00,74.51
3165.00,74.66
3164.00,74.82
3163.00,74.97
3162.00,75.12
3161.00,75.27
3160.00,75.42
3159.00,75.57
3158.00,75.72
3157.00,75.87
3156.00,76.02
3155.00,76.17
3154.00,76.32
3153.00,76.47
3152.00,76.63
3151.00,76.78
3150.00,76.93
3149.00,77.07
3148.00,77.22
3147.00,77.36
3146.00,77.50
3145.00,77.64
3144.00,77.78
3143.00,77.93
3142.00,78.08
3141.00,78.23
3140.00,78.37
3139.00,78.51
3138.00,78.64
3137.00,78.76
3136.00,78.88
3135.00,79.01
3134.00,79.14
3133.00,79.28
3132.00,79.42
3131.00,79.56
3130.00,79.68
3129.00,79.80
3128.00,79.91
3127.00,80.02
3126.00,80.13
3125.00,80.25
3124.00,80.38
3123.00,80.51
3122.00,80.64
3121.00,80.77
3120.00,80.89
3119.00,81.00
3118.00,81.11
3117.00,81.21
3116.00,81.30
3115.00,81.37
3114.00,81.45
3113.00,81.52
3112.00,81.60
3111.00,81.70
3110.00,81.79
3109.00,81.88
3108.00,81.95
3107.00,82.01
3106.00,82.07
3105.00,82.13
3104.00,82.20
3103.00,82.28
3102.00,82.37
3101.00,82.46
3100.00,82.54
3099.00,82.60
3098.00,82.65
3097.00,82.70
3096.00,82.77
3095.00,82.84
3094.00,82.92
3093.00,83.02
3092.00,83.11
3091.00,83.20
3090.00,83.28
3089.00,83.35
3088.00,83.42
3087.00,83.50
3086.00,83.58
3085.00,83.66
3084.00,83.74
3083.00,83.82
3082.00,83.91
3081.00,84.00
3080.00,84.09
3079.00,84.18
3078.00,84.26
3077.00,84.34
3076.00,84.41
3075.00,84.48
3074.00,84.56
3073.00,84.66
3072.00,84.76
3071.00,84.88
3070.00,85.00
3069.00,85.12
3068.00,85.24
3067.00,85.36
3066.00,85.47
3065.00,85.58
3064.00,85.69
3063.00,85.80
3062.00,85.92
3061.00,86.04
3060.00,86.16
3059.00,86.29
3058.00,86.43
3057.00,86.57
3056.00,86.70
3055.00,86.83
3054.00,86.96
3053.00,87.10
3052.00,87.23
3051.00,87.36
3050.00,87.48
3049.00,87.60
3048.00,87.72
3047.00,87.84
3046.00,87.97
3045.00,88.10
3044.00,88.22
3043.00,88.34
3042.00,88.46
3041.00,88.56
3040.00,88.66
3039.00,88.76
3038.00,88.87
3037.00,88.98
3036.00,89.09
3035.00,89.21
3034.00,89.32
3033.00,89.42
3032.00,89.51
3031.00,89.60
3030.00,89.70
3029.00,89.79
3028.00,89.88
3027.00,89.98
3026.00,90.08
3025.00,90.17
3024.00,90.26
3023.00,90.34
3022.00,90.43
3021.00,90.51
3020.00,90.60
3019.00,90.69
3018.00,90.77
3017.00,90.85
3016.00,90.93
3015.00,91.00
3014.00,91.07
3013.00,91.13
3012.00,91.18
3011.00,91.22
3010.00,91.27
3009.00,91.30
3008.00,91.34
3007.00,91.37
3006.00,91.40
3005.00,91.43
3004.00,91.46
3003.00,91.49
3002.00,91.51
3001.00,91.53
3000.00,91.55
2999.00,91.56
2998.00,91.57
2997.00,91.57
2996.00,91.58
2995.00,91.58
2994.00,91.58
2993.00,91.58
2992.00,91.58
2991.00,91.58
2990.00,91.57
2989.00,91.57
2988.00,91.56
2987.00,91.56
2986.00,91.55
2985.00,91.53
2984.00,91.52
2983.00,91.50
2982.00,91.50
2981.00,91.50
2980.00,91.52
2979.00,91.55
2978.00,91.58
2977.00,91.61
2976.00,91.65
2975.00,91.68
2974.00,91.71
2973.00,91.74
2972.00,91.77
2971.00,91.80
2970.00,91.84
2969.00,91.88
2968.00,91.92
2967.00,91.96
2966.00,92.01
2965.00,92.05
2964.00,92.09
2963.00,92.13
2962.00,92.17
2961.00,92.21
2960.00,92.25
2959.00,92.30
2958.00,92.34
2957.00,92.39
2956.00,92.43
2955.00,92.49
2954.00,92.54
2953.00,92.59
2952.00,92.63
2951.00,92.67
2950.00,92.71
2949.00,92.74
2948.00,92.78
2947.00,92.82
2946.00,92.86
2945.00,92.89
2944.00,92.92
2943.00,92.94
2942.00,92.96
2941.00,92.98
2940.00,93.01
2939.00,93.05
2938.00,93.09
2937.00,93.14
2936.00,93.19
2935.00,93.26
2934.00,93.32
2933.00,93.40
2932.00,93.47
2931.00,93.55
2930.00,93.62
2929.00,93.69
2928.00,93.74
2927.00,93.80
2926.00,93.86
2925.00,93.92
2924.00,93.98
2923.00,94.04
2922.00,94.10
2921.00,94.17
2920.00,94.23
2919.00,94.30
2918.00,94.36
2917.00,94.43
2916.00,94.50
2915.00,94.58
2914.00,94.66
2913.00,94.74
2912.00,94.82
2911.00,94.88
2910.00,94.94
2909.00,94.99
2908.00,95.05
2907.00,95.10
2906.00,95.15
2905.00,95.19
2904.00,95.24
2903.00,95.27
2902.00,95.31
2901.00,95.34
2900.00,95.37
2899.00,95.41
2898.00,95.44
2897.00,95.48
2896.00,95.50
2895.00,95.51
2894.00,95.52
2893.00,95.52
2892.00,95.53
2891.00,95.54
2890.00,95.54
2889.00,95.55
2888.00,95.56
2887.00,95.57
2886.00,95.58
2885.00,95.60
2884.00,95.62
2883.00,95.64
2882.00,95.67
2881.00,95.70
2880.00,95.73
2879.00,95.77
2878.00,95.82
2877.00,95.87
2876.00,95.93
2875.00,95.99
2874.00,96.05
2873.00,96.11
2872.00,96.16
2871.00,96.21
2870.00,96.26
2869.00,96.31
2868.00,96.37
2867.00,96.42
2866.00,96.47
2865.00,96.52
2864.00,96.57
2863.00,96.62
2862.00,96.67
2861.00,96.71
2860.00,96.75
2859.00,96.79
2858.00,96.81
2857.00,96.84
2856.00,96.86
2855.00,96.88
2854.00,96.89
2853.00,96.90
2852.00,96.91
2851.00,96.92
2850.00,96.94
2849.00,96.97
2848.00,97.01
2847.00,97.04
2846.00,97.09
2845.00,97.13
2844.00,97.18
2843.00,97.22
2842.00,97.27
2841.00,97.31
2840.00,97.35
2839.00,97.38
2838.00,97.41
2837.00,97.42
2836.00,97.44
2835.00,97.45
2834.00,97.47
2833.00,97.49
2832.00,97.50
2831.00,97.52
2830.00,97.54
2829.00,97.56
2828.00,97.58
2827.00,97.59
2826.00,97.61
2825.00,97.63
2824.00,97.65
2823.00,97.67
2822.00,97.68
2821.00,97.70
2820.00,97.71
2819.00,97.72
2818.00,97.74
2817.00,97.76
2816.00,97.78
2815.00,97.80
2814.00,97.82
2813.00,97.84
2812.00,97.86
2811.00,97.88
2810.00,97.89
2809.00,97.91
2808.00,97.91
2807.00,97.92
2806.00,97.94
2805.00,97.95
2804.00,97.97
2803.00,97.99
2802.00,98.01
2801.00,98.03
2800.00,98.05
2799.00,98.08
2798.00,98.09
2797.00,98.11
2796.00,98.12
2795.00,98.13
2794.00,98.14
2793.00,98.16
2792.00,98.18
2791.00,98.21
2790.00,98.22
2789.00,98.24
2788.00,98.25
2787.00,98.26
2786.00,98.27
2785.00,98.28
2784.00,98.29
2783.00,98.31
2782.00,98.33
2781.00,98.34
2780.00,98.36
2779.00,98.37
2778.00,98.39
2777.00,98.42
2776.00,98.44
2775.00,98.45
2774.00,98.47
2773.00,98.47
2772.00,98.48
2771.00,98.49
2770.00,98.50
2769.00,98.52
2768.00,98.53
2767.00,98.55
2766.00,98.56
2765.00,98.57
2764.00,98.58
2763.00,98.59
2762.00,98.60
2761.00,98.62
2760.00,98.63
2759.00,98.64
2758.00,98.66
2757.00,98.67
2756.00,98.68
2755.00,98.69
2754.00,98.71
2753.00,98.72
2752.00,98.73
2751.00,98.75
2750.00,98.77
2749.00,98.78
2748.00,98.79
2747.00,98.80
2746.00,98.80
2745.00,98.81
2744.00,98.82
2743.00,98.83
2742.00,98.84
2741.00,98.85
2740.00,98.86
2739.00,98.87
2738.00,98.88
2737.00,98.89
2736.00,98.90
2735.00,98.91
2734.00,98.92
2733.00,98.93
2732.00,98.93
2731.00,98.94
2730.00,98.95
2729.00,98.96
2728.00,98.98
2727.00,98.99
2726.00,99.00
2725.00,99.01
2724.00,99.02
2723.00,99.03
2722.00,99.03
2721.00,99.04
2720.00,99.04
2719.00,99.04
2718.00,99.05
2717.00,99.06
2716.00,99.06
2715.00,99.07
2714.00,99.08
2713.00,99.08
2712.00,99.09
2711.00,99.10
2710.00,99.11
2709.00,99.11
2708.00,99.11
2707.00,99.12
2706.00,99.12
2705.00,99.13
2704.00,99.13
2703.00,99.13
2702.00,99.14
2701.00,99.15
2700.00,99.15
2699.00,99.16
2698.00,99.16
2697.00,99.16
2696.00,99.17
2695.00,99.17
2694.00,99.18
2693.00,99.18
2692.00,99.18
2691.00,99.18
2690.00,99.18
2689.00,99.19
2688.00,99.19
2687.00,99.19
2686.00,99.19
2685.00,99.20
2684.00,99.20
2683.00,99.21
2682.00,99.22
2681.00,99.22
2680.00,99.23
2679.00,99.23
2678.00,99.23
2677.00,99.23
2676.00,99.23
2675.00,99.23
2674.00,99.23
2673.00,99.23
2672.00,99.23
2671.00,99.23
2670.00,99.24
2669.00,99.24
2668.00,99.24
2667.00,99.24
2666.00,99.24
2665.00,99.23
2664.00,99.24
2663.00,99.24
2662.00,99.24
2661.00,99.25
2660.00,99.25
2659.00,99.26
2658.00,99.26
2657.00,99.26
2656.00,99.26
2655.00,99.27
2654.00,99.27
2653.00,99.27
2652.00,99.27
2651.00,99.27
2650.00,99.27
2649.00,99.28
2648.00,99.28
2647.00,99.28
2646.00,99.29
2645.00,99.29
2644.00,99.29
2643.00,99.30
2642.00,99.30
2641.00,99.31
2640.00,99.31
2639.00,99.32
2638.00,99.32
2637.00,99.32
2636.00,99.32
2635.00,99.32
2634.00,99.33
2633.00,99.33
2632.00,99.33
2631.00,99.34
2630.00,99.35
2629.00,99.35
2628.00,99.35
2627.00,99.36
2626.00,99.36
2625.00,99.36
2624.00,99.37
2623.00,99.37
2622.00,99.37
2621.00,99.37
2620.00,99.37
2619.00,99.37
2618.00,99.37
2617.00,99.38
2616.00,99.38
2615.00,99.39
2614.00,99.39
2613.00,99.39
2612.00,99.40
2611.00,99.40
2610.00,99.40
2609.00,99.40
2608.00,99.40
2607.00,99.40
2606.00,99.40
2605.00,99.40
2604.00,99.41
2603.00,99.41
2602.00,99.41
2601.00,99.41
2600.00,99.41
2599.00,99.41
2598.00,99.41
2597.00,99.42
2596.00,99.42
2595.00,99.42
2594.00,99.42
2593.00,99.42
2592.00,99.42
2591.00,99.43
2590.00,99.43
2589.00,99.43
2588.00,99.43
2587.00,99.43
2586.00,99.43
2585.00,99.43
2584.00,99.43
2583.00,99.43
2582.00,99.44
2581.00,99.44
2580.00,99.44
2579.00,99.44
2578.00,99.44
2577.00,99.44
2576.00,99.44
2575.00,99.44
2574.00,99.44
2573.00,99.44
2572.00,99.44
2571.00,99.44
2570.00,99.44
2569.00,99.44
2568.00,99.44
2567.00,99.44
2566.00,99.44
2565.00,99.44
2564.00,99.44
2563.00,99.44
2562.00,99.44
2561.00,99.44
2560.00,99.44
2559.00,99.45
2558.00,99.45
2557.00,99.45
2556.00,99.45
2555.00,99.45
2554.00,99.45
2553.00,99.45
2552.00,99.45
2551.00,99.45
2550.00,99.45
2549.00,99.46
2548.00,99.45
2547.00,99.46
2546.00,99.46
2545.00,99.46
2544.00,99.45
2543.00,99.45
2542.00,99.45
2541.00,99.45
2540.00,99.45
2539.00,99.45
2538.00,99.46
2537.00,99.45
2536.00,99.45
2535.00,99.46
2534.00,99.46
2533.00,99.46
2532.00,99.46
2531.00,99.46
2530.00,99.46
2529.00,99.45
2528.00,99.45
2527.00,99.45
2526.00,99.45
2525.00,99.45
2524.00,99.45
2523.00,99.45
2522.00,99.46
2521.00,99.45
2520.00,99.45
2519.00,99.45
2518.00,99.45
2517.00,99.45
2516.00,99.45
2515.00,99.45
2514.00,99.45
2513.00,99.44
2512.00,99.44
2511.00,99.44
2510.00,99.44
2509.00,99.43
2508.00,99.43
2507.00,99.43
2506.00,99.44
2505.00,99.44
2504.00,99.44
2503.00,99.44
2502.00,99.44
2501.00,99.43
2500.00,99.43
2499.00,99.43
2498.00,99.43
2497.00,99.43
2496.00,99.43
2495.00,99.43
2494.00,99.43
2493.00,99.43
2492.00,99.43
2491.00,99.43
2490.00,99.43
2489.00,99.43
2488.00,99.43
2487.00,99.43
2486.00,99.43
2485.00,99.43
2484.00,99.43
2483.00,99.43
2482.00,99.43
2481.00,99.43
2480.00,99.43
2479.00,99.43
2478.00,99.43
2477.00,99.43
2476.00,99.43
2475.00,99.43
2474.00,99.43
2473.00,99.43
2472.00,99.42
2471.00,99.42
2470.00,99.43
2469.00,99.43
2468.00,99.43
2467.00,99.43
2466.00,99.43
2465.00,99.43
2464.00,99.43
2463.00,99.42
2462.00,99.42
2461.00,99.43
2460.00,99.42
2459.00,99.42
2458.00,99.42
2457.00,99.42
2456.00,99.41
2455.00,99.41
2454.00,99.40
2453.00,99.40
2452.00,99.40
2451.00,99.40
2450.00,99.40
2449.00,99.40
2448.00,99.40
2447.00,99.40
2446.00,99.40
2445.00,99.39
2444.00,99.39
2443.00,99.39
2442.00,99.39
2441.00,99.39
2440.00,99.39
2439.00,99.38
2438.00,99.38
2437.00,99.38
2436.00,99.38
2435.00,99.38
2434.00,99.38
2433.00,99.38
2432.00,99.38
2431.00,99.37
2430.00,99.38
2429.00,99.37
2428.00,99.37
2427.00,99.36
2426.00,99.36
2425.00,99.35
2424.00,99.35
2423.00,99.34
2422.00,99.34
2421.00,99.34
2420.00,99.34
2419.00,99.34
2418.00,99.34
2417.00,99.34
2416.00,99.33
2415.00,99.32
2414.00,99.32
2413.00,99.32
2412.00,99.32
2411.00,99.32
2410.00,99.32
2409.00,99.31
2408.00,99.31
2407.00,99.31
2406.00,99.31
2405.00,99.31
2404.00,99.30
2403.00,99.30
2402.00,99.30
2401.00,99.30
2400.00,99.30
2399.00,99.29
2398.00,99.29
2397.00,99.29
2396.00,99.29
2395.00,99.29
2394.00,99.28
2393.00,99.28
2392.00,99.28
2391.00,99.27
2390.00,99.27
2389.00,99.26
2388.00,99.25
2387.00,99.23
2386.00,99.22
2385.00,99.20
2384.00,99.19
2383.00,99.18
2382.00,99.19
2381.00,99.20
2380.00,99.23
2379.00,99.26
2378.00,99.30
2377.00,99.32
2376.00,99.32
2375.00,99.30
2374.00,99.28
2373.00,99.24
2372.00,99.21
2371.00,99.19
2370.00,99.19
2369.00,99.19
2368.00,99.18
2367.00,99.18
2366.00,99.18
2365.00,99.17
2364.00,99.16
2363.00,99.16
2362.00,99.16
2361.00,99.16
2360.00,99.15
2359.00,99.14
2358.00,99.13
2357.00,99.12
2356.00,99.11
2355.00,99.11
2354.00,99.11
2353.00,99.11
2352.00,99.12
2351.00,99.12
2350.00,99.10
2349.00,99.06
2348.00,99.00
2347.00,98.95
2346.00,98.93
2345.00,98.93
2344.00,98.93
2343.00,98.93
2342.00,98.95
2341.00,98.98
2340.00,99.02
2339.00,99.06
2338.00,99.08
2337.00,99.08
2336.00,99.08
2335.00,99.08
2334.00,99.08
2333.00,99.08
2332.00,99.08
2331.00,99.07
2330.00,99.06
2329.00,99.02
2328.00,98.99
2327.00,98.95
2326.00,98.92
2325.00,98.89
2324.00,98.88
2323.00,98.89
2322.00,98.90
2321.00,98.91
2320.00,98.91
2319.00,98.90
2318.00,98.90
2317.00,98.89
2316.00,98.88
2315.00,98.88
2314.00,98.87
2313.00,98.86
2312.00,98.85
2311.00,98.84
2310.00,98.83
2309.00,98.82
2308.00,98.81
2307.00,98.80
2306.00,98.80
2305.00,98.79
2304.00,98.77
2303.00,98.75
2302.00,98.74
2301.00,98.72
2300.00,98.71
2299.00,98.71
2298.00,98.71
2297.00,98.71
2296.00,98.71
2295.00,98.71
2294.00,98.71
2293.00,98.70
2292.00,98.69
2291.00,98.69
2290.00,98.69
2289.00,98.70
2288.00,98.69
2287.00,98.69
2286.00,98.69
2285.00,98.68
2284.00,98.67
2283.00,98.67
2282.00,98.66
2281.00,98.66
2280.00,98.65
2279.00,98.64
2278.00,98.64
2277.00,98.63
2276.00,98.62
2275.00,98.62
2274.00,98.61
2273.00,98.60
2272.00,98.59
2271.00,98.58
2270.00,98.58
2269.00,98.57
2268.00,98.57
2267.00,98.56
2266.00,98.56
2265.00,98.55
2264.00,98.54
2263.00,98.53
2262.00,98.53
2261.00,98.52
2260.00,98.51
2259.00,98.50
2258.00,98.50
2257.00,98.49
2256.00,98.49
2255.00,98.48
2254.00,98.48
2253.00,98.47
2252.00,98.45
2251.00,98.45
2250.00,98.45
2249.00,98.45
2248.00,98.44
2247.00,98.43
2246.00,98.42
2245.00,98.41
2244.00,98.39
2243.00,98.38
2242.00,98.38
2241.00,98.37
2240.00,98.36
2239.00,98.36
2238.00,98.35
2237.00,98.34
2236.00,98.33
2235.00,98.32
2234.00,98.32
2233.00,98.31
2232.00,98.30
2231.00,98.29
2230.00,98.29
2229.00,98.28
2228.00,98.27
2227.00,98.26
2226.00,98.26
2225.00,98.24
2224.00,98.22
2223.00,98.20
2222.00,98.20
2221.00,98.20
2220.00,98.20
2219.00,98.20
2218.00,98.20
2217.00,98.18
2216.00,98.17
2215.00,98.15
2214.00,98.15
2213.00,98.14
2212.00,98.13
2211.00,98.12
2210.00,98.12
2209.00,98.11
2208.00,98.09
2207.00,98.08
2206.00,98.07
2205.00,98.07
2204.00,98.06
2203.00,98.05
2202.00,98.06
2201.00,98.05
2200.00,98.04
2199.00,98.03
2198.00,98.01
2197.00,98.00
2196.00,97.99
2195.00,97.98
2194.00,97.99
2193.00,97.99
2192.00,97.98
2191.00,97.97
2190.00,97.97
2189.00,97.96
2188.00,97.94
2187.00,97.93
2186.00,97.92
2185.00,97.91
2184.00,97.90
2183.00,97.90
2182.00,97.91
2181.00,97.91
2180.00,97.89
2179.00,97.88
2178.00,97.87
2177.00,97.86
2176.00,97.86
2175.00,97.86
2174.00,97.86
2173.00,97.85
2172.00,97.84
2171.00,97.83
2170.00,97.83
2169.00,97.82
2168.00,97.79
2167.00,97.78
2166.00,97.77
2165.00,97.76
2164.00,97.74
2163.00,97.73
2162.00,97.73
2161.00,97.73
2160.00,97.74
2159.00,97.75
2158.00,97.78
2157.00,97.79
2156.00,97.80
2155.00,97.81
2154.00,97.82
2153.00,97.81
2152.00,97.78
2151.00,97.76
2150.00,97.76
2149.00,97.76
2148.00,97.75
2147.00,97.75
2146.00,97.75
2145.00,97.76
2144.00,97.75
2143.00,97.76
2142.00,97.76
2141.00,97.76
2140.00,97.75
2139.00,97.75
2138.00,97.76
2137.00,97.76
2136.00,97.75
2135.00,97.75
2134.00,97.75
2133.00,97.75
2132.00,97.75
2131.00,97.75
2130.00,97.76
2129.00,97.76
2128.00,97.76
2127.00,97.76
2126.00,97.76
2125.00,97.75
2124.00,97.74
2123.00,97.74
2122.00,97.74
2121.00,97.74
2120.00,97.73
2119.00,97.74
2118.00,97.74
2117.00,97.75
2116.00,97.75
2115.00,97.75
2114.00,97.75
2113.00,97.74
2112.00,97.74
2111.00,97.74
2110.00,97.75
2109.00,97.75
2108.00,97.75
2107.00,97.75
2106.00,97.75
2105.00,97.76
2104.00,97.75
2103.00,97.76
2102.00,97.77
2101.00,97.78
2100.00,97.78
2099.00,97.78
2098.00,97.78
2097.00,97.78
2096.00,97.78
2095.00,97.78
2094.00,97.80
2093.00,97.81
2092.00,97.82
2091.00,97.82
2090.00,97.83
2089.00,97.83
2088.00,97.82
2087.00,97.82
2086.00,97.83
2085.00,97.83
2084.00,97.82
2083.00,97.83
2082.00,97.85
2081.00,97.86
2080.00,97.86
2079.00,97.87
2078.00,97.88
2077.00,97.88
2076.00,97.89
2075.00,97.89
2074.00,97.90
2073.00,97.90
2072.00,97.90
2071.00,97.91
2070.00,97.93
2069.00,97.94
2068.00,97.94
2067.00,97.94
2066.00,97.95
2065.00,97.96
2064.00,97.95
2063.00,97.96
2062.00,97.97
2061.00,97.98
2060.00,97.98
2059.00,97.98
2058.00,97.99
2057.00,98.00
2056.00,98.00
2055.00,98.00
2054.00,98.02
2053.00,98.02
2052.00,98.03
2051.00,98.03
2050.00,98.04
2049.00,98.05
2048.00,98.05
2047.00,98.05
2046.00,98.06
2045.00,98.06
2044.00,98.06
2043.00,98.07
2042.00,98.10
2041.00,98.11
2040.00,98.11
2039.00,98.11
2038.00,98.13
2037.00,98.13
2036.00,98.12
2035.00,98.12
2034.00,98.13
2033.00,98.15
2032.00,98.16
2031.00,98.17
2030.00,98.19
2029.00,98.20
2028.00,98.21
2027.00,98.23
2026.00,98.26
2025.00,98.27
2024.00,98.27
2023.00,98.27
2022.00,98.29
2021.00,98.31
2020.00,98.30
2019.00,98.30
2018.00,98.30
2017.00,98.30
2016.00,98.30
2015.00,98.31
2014.00,98.34
2013.00,98.35
2012.00,98.34
2011.00,98.34
2010.00,98.34
2009.00,98.34
2008.00,98.35
2007.00,98.37
2006.00,98.39
2005.00,98.41
2004.00,98.40
2003.00,98.41
2002.00,98.43
2001.00,98.45
2000.00,98.45
1999.00,98.46
1998.00,98.47
1997.00,98.47
1996.00,98.46
1995.00,98.46
1994.00,98.48
1993.00,98.49
1992.00,98.49
1991.00,98.50
1990.00,98.51
1989.00,98.51
1988.00,98.50
1987.00,98.50
1986.00,98.51
1985.00,98.51
1984.00,98.51
1983.00,98.51
1982.00,98.52
1981.00,98.52
1980.00,98.52
1979.00,98.53
1978.00,98.55
1977.00,98.56
1976.00,98.56
1975.00,98.57
1974.00,98.59
1973.00,98.61
1972.00,98.62
1971.00,98.64
1970.00,98.67
1969.00,98.67
1968.00,98.66
1967.00,98.65
1966.00,98.67
1965.00,98.67
1964.00,98.66
1963.00,98.66
1962.00,98.68
1961.00,98.69
1960.00,98.69
1959.00,98.70
1958.00,98.72
1957.00,98.72
1956.00,98.71
1955.00,98.71
1954.00,98.73
1953.00,98.74
1952.00,98.74
1951.00,98.74
1950.00,98.75
1949.00,98.75
1948.00,98.74
1947.00,98.75
1946.00,98.76
1945.00,98.76
1944.00,98.76
1943.00,98.76
1942.00,98.78
1941.00,98.78
1940.00,98.77
1939.00,98.77
1938.00,98.78
1937.00,98.79
1936.00,98.79
1935.00,98.80
1934.00,98.81
1933.00,98.81
1932.00,98.80
1931.00,98.80
1930.00,98.81
1929.00,98.81
1928.00,98.81
1927.00,98.82
1926.00,98.84
1925.00,98.86
1924.00,98.86
1923.00,98.85
1922.00,98.84
1921.00,98.83
1920.00,98.82
1919.00,98.82
1918.00,98.84
1917.00,98.84
1916.00,98.84
1915.00,98.84
1914.00,98.84
1913.00,98.85
1912.00,98.85
1911.00,98.85
1910.00,98.86
1909.00,98.87
1908.00,98.86
1907.00,98.85
1906.00,98.85
1905.00,98.85
1904.00,98.84
1903.00,98.84
1902.00,98.84
1901.00,98.85
1900.00,98.84
1899.00,98.84
1898.00,98.85
1897.00,98.86
1896.00,98.85
1895.00,98.85
1894.00,98.86
1893.00,98.85
1892.00,98.84
1891.00,98.84
1890.00,98.85
1889.00,98.85
1888.00,98.84
1887.00,98.84
1886.00,98.85
1885.00,98.85
1884.00,98.85
1883.00,98.84
1882.00,98.85
1881.00,98.85
1880.00,98.84
1879.00,98.83
1878.00,98.84
1877.00,98.84
1876.00,98.83
1875.00,98.82
1874.00,98.83
1873.00,98.83
1872.00,98.82
1871.00,98.83
1870.00,98.85
1869.00,98.86
1868.00,98.85
1867.00,98.83
1866.00,98.83
1865.00,98.83
1864.00,98.82
1863.00,98.81
1862.00,98.82
1861.00,98.82
1860.00,98.81
1859.00,98.80
1858.00,98.79
1857.00,98.79
1856.00,98.77
1855.00,98.77
1854.00,98.78
1853.00,98.79
1852.00,98.79
1851.00,98.79
1850.00,98.79
1849.00,98.79
1848.00,98.77
1847.00,98.76
1846.00,98.76
1845.00,98.78
1844.00,98.77
1843.00,98.76
1842.00,98.74
1841.00,98.73
1840.00,98.72
1839.00,98.72
1838.00,98.72
1837.00,98.72
1836.00,98.71
1835.00,98.69
1834.00,98.68
1833.00,98.66
1832.00,98.64
1831.00,98.64
1830.00,98.66
1829.00,98.66
1828.00,98.64
1827.00,98.64
1826.00,98.64
1825.00,98.64
1824.00,98.63
1823.00,98.61
1822.00,98.61
1821.00,98.61
1820.00,98.60
1819.00,98.59
1818.00,98.59
1817.00,98.59
1816.00,98.58
1815.00,98.57
1814.00,98.56
1813.00,98.56
1812.00,98.54
1811.00,98.53
1810.00,98.53
1809.00,98.52
1808.00,98.50
1807.00,98.49
1806.00,98.49
1805.00,98.49
1804.00,98.47
1803.00,98.45
1802.00,98.43
1801.00,98.42
1800.00,98.40
1799.00,98.40
1798.00,98.40
1797.00,98.39
1796.00,98.35
1795.00,98.32
1794.00,98.32
1793.00,98.32
1792.00,98.31
1791.00,98.29
1790.00,98.27
1789.00,98.26
1788.00,98.24
1787.00,98.23
1786.00,98.22
1785.00,98.21
1784.00,98.18
1783.00,98.16
1782.00,98.15
1781.00,98.14
1780.00,98.12
1779.00,98.09
1778.00,98.08
1777.00,98.07
1776.00,98.05
1775.00,98.03
1774.00,98.01
1773.00,97.99
1772.00,97.96
1771.00,97.94
1770.00,97.93
1769.00,97.91
1768.00,97.87
1767.00,97.83
1766.00,97.80
1765.00,97.77
1764.00,97.74
1763.00,97.72
1762.00,97.71
1761.00,97.69
1760.00,97.65
1759.00,97.61
1758.00,97.59
1757.00,97.57
1756.00,97.54
1755.00,97.53
1754.00,97.53
1753.00,97.51
1752.00,97.47
1751.00,97.40
1750.00,97.34
1749.00,97.29
1748.00,97.23
1747.00,97.18
1746.00,97.15
1745.00,97.10
1744.00,97.01
1743.00,96.92
1742.00,96.86
1741.00,96.82
1740.00,96.77
1739.00,96.73
1738.00,96.71
1737.00,96.70
1736.00,96.67
1735.00,96.64
1734.00,96.57
1733.00,96.42
1732.00,96.26
1731.00,96.13
1730.00,96.04
1729.00,95.95
1728.00,95.84
1727.00,95.74
1726.00,95.65
1725.00,95.55
1724.00,95.42
1723.00,95.28
1722.00,95.16
1721.00,95.09
1720.00,95.02
1719.00,94.95
1718.00,94.82
1717.00,94.60
1716.00,94.33
1715.00,94.11
1714.00,93.96
1713.00,93.82
1712.00,93.65
1711.00,93.46
1710.00,93.28
1709.00,93.07
1708.00,92.84
1707.00,92.59
1706.00,92.33
1705.00,92.03
1704.00,91.71
1703.00,91.41
1702.00,91.14
1701.00,90.81
1700.00,90.30
1699.00,89.79
1698.00,89.41
1697.00,88.95
1696.00,88.26
1695.00,87.54
1694.00,86.98
1693.00,86.54
1692.00,86.11
1691.00,85.63
1690.00,85.11
1689.00,84.58
1688.00,84.10
1687.00,83.65
1686.00,83.20
1685.00,82.54
1684.00,81.58
1683.00,80.71
1682.00,80.14
1681.00,79.62
1680.00,79.01
1679.00,78.39
1678.00,77.82
1677.00,77.22
1676.00,76.48
1675.00,75.62
1674.00,74.82
1673.00,74.16
1672.00,73.52
1671.00,72.78
1670.00,71.89
1669.00,70.93
1668.00,70.05
1667.00,69.34
1666.00,68.75
1665.00,68.17
1664.00,67.47
1663.00,66.66
1662.00,65.88
1661.00,65.22
1660.00,64.64
1659.00,64.11
1658.00,63.65
1657.00,63.26
1656.00,62.88
1655.00,62.48
1654.00,61.99
1653.00,61.38
1652.00,60.85
1651.00,60.51
1650.00,60.28
1649.00,60.07
1648.00,59.76
1647.00,59.38
1646.00,59.10
1645.00,58.92
1644.00,58.72
1643.00,58.51
1642.00,58.32
1641.00,58.15
1640.00,57.97
1639.00,57.78
1638.00,57.61
1637.00,57.46
1636.00,57.32
1635.00,57.24
1634.00,57.23
1633.00,57.23
1632.00,57.20
1631.00,57.17
1630.00,57.23
1629.00,57.41
1628.00,57.71
1627.00,58.06
1626.00,58.43
1625.00,58.87
1624.00,59.46
1623.00,60.25
1622.00,61.08
1621.00,61.77
1620.00,62.31
1619.00,62.83
1618.00,63.50
1617.00,64.53
1616.00,65.73
1615.00,66.71
1614.00,67.44
1613.00,68.09
1612.00,68.77
1611.00,69.53
1610.00,70.33
1609.00,71.18
1608.00,72.02
1607.00,72.82
1606.00,73.53
1605.00,74.18
1604.00,74.83
1603.00,75.46
1602.00,76.06
1601.00,76.61
1600.00,77.12
1599.00,77.57
1598.00,77.96
1597.00,78.32
1596.00,78.67
1595.00,79.00
1594.00,79.28
1593.00,79.50
1592.00,79.69
1591.00,79.84
1590.00,79.95
1589.00,80.01
1588.00,80.06
1587.00,80.07
1586.00,80.04
1585.00,79.96
1584.00,79.87
1583.00,79.75
1582.00,79.59
1581.00,79.40
1580.00,79.23
1579.00,79.07
1578.00,78.83
1577.00,78.45
1576.00,77.95
1575.00,77.45
1574.00,77.01
1573.00,76.62
1572.00,76.25
1571.00,75.81
1570.00,75.23
1569.00,74.59
1568.00,74.06
1567.00,73.61
1566.00,73.16
1565.00,72.68
1564.00,72.24
1563.00,71.87
1562.00,71.52
1561.00,71.19
1560.00,70.81
1559.00,70.30
1558.00,69.93
1557.00,69.77
1556.00,69.67
1555.00,69.59
1554.00,69.53
1553.00,69.51
1552.00,69.51
1551.00,69.57
1550.00,69.70
1549.00,69.88
1548.00,70.04
1547.00,70.18
1546.00,70.34
1545.00,70.57
1544.00,70.86
1543.00,71.17
1542.00,71.49
1541.00,71.98
1540.00,72.73
1539.00,73.38
1538.00,73.71
1537.00,73.86
1536.00,73.98
1535.00,74.21
1534.00,74.65
1533.00,75.28
1532.00,75.82
1531.00,76.17
1530.00,76.46
1529.00,76.77
1528.00,77.15
1527.00,77.60
1526.00,78.08
1525.00,78.53
1524.00,78.90
1523.00,79.27
1522.00,79.79
1521.00,80.41
1520.00,80.86
1519.00,81.14
1518.00,81.47
1517.00,81.95
1516.00,82.48
1515.00,82.92
1514.00,83.28
1513.00,83.62
1512.00,83.97
1511.00,84.31
1510.00,84.64
1509.00,84.95
1508.00,85.31
1507.00,85.94
1506.00,86.63
1505.00,86.96
1504.00,87.07
1503.00,87.16
1502.00,87.28
1501.00,87.44
1500.00,87.63
1499.00,87.85
1498.00,88.10
1497.00,88.38
1496.00,88.60
1495.00,88.73
1494.00,88.81
1493.00,88.87
1492.00,88.93
1491.00,89.00
1490.00,89.09
1489.00,89.16
1488.00,89.16
1487.00,89.12
1486.00,89.07
1485.00,88.99
1484.00,88.88
1483.00,88.75
1482.00,88.59
1481.00,88.41
1480.00,88.21
1479.00,87.99
1478.00,87.78
1477.00,87.56
1476.00,87.29
1475.00,87.00
1474.00,86.69
1473.00,86.29
1472.00,85.85
1471.00,85.50
1470.00,85.22
1469.00,84.97
1468.00,84.72
1467.00,84.45
1466.00,84.16
1465.00,83.85
1464.00,83.54
1463.00,83.27
1462.00,83.05
1461.00,82.86
1460.00,82.70
1459.00,82.55
1458.00,82.38
1457.00,82.24
1456.00,82.17
1455.00,82.16
1454.00,82.20
1453.00,82.30
1452.00,82.46
1451.00,82.65
1450.00,82.86
1449.00,83.13
1448.00,83.46
1447.00,83.79
1446.00,84.07
1445.00,84.29
1444.00,84.48
1443.00,84.67
1442.00,84.86
1441.00,85.04
1440.00,85.22
1439.00,85.38
1438.00,85.59
1437.00,85.89
1436.00,86.22
1435.00,86.45
1434.00,86.58
1433.00,86.66
1432.00,86.73
1431.00,86.79
1430.00,86.84
1429.00,86.89
1428.00,86.91
1427.00,86.90
1426.00,86.88
1425.00,86.86
1424.00,86.84
1423.00,86.82
1422.00,86.79
1421.00,86.76
1420.00,86.72
1419.00,86.64
1418.00,86.54
1417.00,86.42
1416.00,86.30
1415.00,86.17
1414.00,86.04
1413.00,85.91
1412.00,85.78
1411.00,85.65
1410.00,85.53
1409.00,85.44
1408.00,85.37
1407.00,85.33
1406.00,85.32
1405.00,85.35
1404.00,85.40
1403.00,85.45
1402.00,85.50
1401.00,85.56
1400.00,85.65
1399.00,85.75
1398.00,85.85
1397.00,85.93
1396.00,86.00
1395.00,86.08
1394.00,86.17
1393.00,86.23
1392.00,86.28
1391.00,86.32
1390.00,86.36
1389.00,86.42
1388.00,86.48
1387.00,86.54
1386.00,86.60
1385.00,86.65
1384.00,86.70
1383.00,86.76
1382.00,86.84
1381.00,86.94
1380.00,87.05
1379.00,87.16
1378.00,87.28
1377.00,87.39
1376.00,87.52
1375.00,87.65
1374.00,87.81
1373.00,87.96
1372.00,88.08
1371.00,88.20
1370.00,88.33
1369.00,88.47
1368.00,88.62
1367.00,88.76
1366.00,88.87
1365.00,88.97
1364.00,89.05
1363.00,89.11
1362.00,89.15
1361.00,89.16
1360.00,89.15
1359.00,89.11
1358.00,89.05
1357.00,88.98
1356.00,88.88
1355.00,88.76
1354.00,88.62
1353.00,88.47
1352.00,88.30
1351.00,88.13
1350.00,87.94
1349.00,87.74
1348.00,87.54
1347.00,87.33
1346.00,87.12
1345.00,86.90
1344.00,86.70
1343.00,86.53
1342.00,86.37
1341.00,86.24
1340.00,86.12
1339.00,86.03
1338.00,86.00
1337.00,86.03
1336.00,86.11
1335.00,86.22
1334.00,86.37
1333.00,86.55
1332.00,86.73
1331.00,86.91
1330.00,87.08
1329.00,87.24
1328.00,87.36
1327.00,87.46
1326.00,87.53
1325.00,87.58
1324.00,87.61
1323.00,87.64
1322.00,87.65
1321.00,87.66
1320.00,87.68
1319.00,87.69
1318.00,87.72
1317.00,87.75
1316.00,87.80
1315.00,87.85
1314.00,87.92
1313.00,87.99
1312.00,88.07
1311.00,88.14
1310.00,88.20
1309.00,88.25
1308.00,88.28
1307.00,88.31
1306.00,88.32
1305.00,88.34
1304.00,88.36
1303.00,88.38
1302.00,88.40
1301.00,88.42
1300.00,88.43
1299.00,88.42
1298.00,88.39
1297.00,88.33
1296.00,88.26
1295.00,88.16
1294.00,88.04
1293.00,87.91
1292.00,87.76
1291.00,87.61
1290.00,87.45
1289.00,87.29
1288.00,87.14
1287.00,87.01
1286.00,86.90
1285.00,86.82
1284.00,86.76
1283.00,86.73
1282.00,86.73
1281.00,86.74
1280.00,86.76
1279.00,86.80
1278.00,86.83
1277.00,86.86
1276.00,86.88
1275.00,86.89
1274.00,86.88
1273.00,86.86
1272.00,86.82
1271.00,86.77
1270.00,86.71
1269.00,86.65
1268.00,86.58
1267.00,86.50
1266.00,86.42
1265.00,86.33
1264.00,86.24
1263.00,86.13
1262.00,86.02
1261.00,85.89
1260.00,85.76
1259.00,85.63
1258.00,85.48
1257.00,85.34
1256.00,85.20
1255.00,85.05
1254.00,84.90
1253.00,84.76
1252.00,84.61
1251.00,84.47
1250.00,84.33
1249.00,84.20
1248.00,84.07
1247.00,83.96
1246.00,83.87
1245.00,83.79
1244.00,83.74
1243.00,83.72
1242.00,83.74
1241.00,83.80
1240.00,83.89
1239.00,84.02
1238.00,84.20
1237.00,84.41
1236.00,84.65
1235.00,84.91
1234.00,85.20
1233.00,85.50
1232.00,85.82
1231.00,86.15
1230.00,86.50
1229.00,86.84
1228.00,87.18
1227.00,87.51
1226.00,87.83
1225.00,88.13
1224.00,88.40
1223.00,88.64
1222.00,88.85
1221.00,89.03
1220.00,89.17
1219.00,89.28
1218.00,89.35
1217.00,89.38
1216.00,89.38
1215.00,89.34
1214.00,89.28
1213.00,89.18
1212.00,89.07
1211.00,88.94
1210.00,88.80
1209.00,88.66
1208.00,88.52
1207.00,88.39
1206.00,88.27
1205.00,88.19
1204.00,88.14
1203.00,88.15
1202.00,88.21
1201.00,88.31
1200.00,88.46
1199.00,88.63
1198.00,88.80
1197.00,88.98
1196.00,89.15
1195.00,89.30
1194.00,89.44
1193.00,89.58
1192.00,89.70
1191.00,89.82
1190.00,89.94
1189.00,90.04
1188.00,90.14
1187.00,90.22
1186.00,90.28
1185.00,90.33
1184.00,90.37
1183.00,90.40
1182.00,90.41
1181.00,90.42
1180.00,90.41
1179.00,90.40
1178.00,90.38
1177.00,90.36
1176.00,90.33
1175.00,90.30
1174.00,90.27
1173.00,90.23
1172.00,90.18
1171.00,90.12
1170.00,90.06
1169.00,89.99
1168.00,89.92
1167.00,89.85
1166.00,89.79
1165.00,89.74
1164.00,89.71
1163.00,89.71
1162.00,89.72
1161.00,89.77
1160.00,89.83
1159.00,89.90
1158.00,89.98
1157.00,90.07
1156.00,90.17
1155.00,90.26
1154.00,90.34
1153.00,90.42
1152.00,90.49
1151.00,90.56
1150.00,90.61
1149.00,90.65
1148.00,90.68
1147.00,90.71
1146.00,90.72
1145.00,90.72
1144.00,90.72
1143.00,90.71
1142.00,90.69
1141.00,90.67
1140.00,90.64
1139.00,90.60
1138.00,90.56
1137.00,90.51
1136.00,90.46
1135.00,90.40
1134.00,90.33
1133.00,90.26
1132.00,90.18
1131.00,90.09
1130.00,90.01
1129.00,89.93
1128.00,89.86
1127.00,89.80
1126.00,89.76
1125.00,89.74
1124.00,89.72
1123.00,89.71
1122.00,89.70
1121.00,89.69
1120.00,89.68
1119.00,89.66
1118.00,89.63
1117.00,89.59
1116.00,89.55
1115.00,89.51
1114.00,89.46
1113.00,89.41
1112.00,89.36
1111.00,89.30
1110.00,89.24
1109.00,89.18
1108.00,89.12
1107.00,89.05
1106.00,88.99
1105.00,88.93
1104.00,88.87
1103.00,88.82
1102.00,88.77
1101.00,88.73
1100.00,88.69
1099.00,88.66
1098.00,88.63
1097.00,88.60
1096.00,88.58
1095.00,88.55
1094.00,88.51
1093.00,88.47
1092.00,88.41
1091.00,88.34
1090.00,88.23
1089.00,88.10
1088.00,87.94
1087.00,87.76
1086.00,87.58
1085.00,87.40
1084.00,87.25
1083.00,87.14
1082.00,87.09
1081.00,87.11
1080.00,87.19
1079.00,87.32
1078.00,87.49
1077.00,87.67
1076.00,87.86
1075.00,88.05
1074.00,88.21
1073.00,88.36
1072.00,88.48
1071.00,88.58
1070.00,88.65
1069.00,88.71
1068.00,88.75
1067.00,88.79
1066.00,88.82
1065.00,88.86
1064.00,88.89
1063.00,88.94
1062.00,88.98
1061.00,89.03
1060.00,89.09
1059.00,89.15
1058.00,89.20
1057.00,89.26
1056.00,89.32
1055.00,89.37
1054.00,89.42
1053.00,89.47
1052.00,89.51
1051.00,89.56
1050.00,89.60
1049.00,89.64
1048.00,89.67
1047.00,89.70
1046.00,89.73
1045.00,89.74
1044.00,89.75
1043.00,89.75
1042.00,89.73
1041.00,89.69
1040.00,89.63
1039.00,89.54
1038.00,89.44
1037.00,89.32
1036.00,89.21
1035.00,89.11
1034.00,89.04
1033.00,89.02
1032.00,89.04
1031.00,89.09
1030.00,89.18
1029.00,89.29
1028.00,89.41
1027.00,89.52
1026.00,89.63
1025.00,89.74
1024.00,89.84
1023.00,89.92
1022.00,90.00
1021.00,90.06
1020.00,90.10
1019.00,90.13
1018.00,90.16
1017.00,90.17
1016.00,90.19
1015.00,90.21
1014.00,90.25
1013.00,90.29
1012.00,90.33
1011.00,90.38
1010.00,90.43
1009.00,90.48
1008.00,90.53
1007.00,90.57
1006.00,90.61
1005.00,90.65
1004.00,90.69
1003.00,90.73
1002.00,90.76
1001.00,90.79
1000.00,90.81
999.00,90.83
998.00,90.85
997.00,90.87
996.00,90.89
995.00,90.90
994.00,90.91
993.00,90.91
992.00,90.91
991.00,90.90
990.00,90.89
989.00,90.87
988.00,90.85
987.00,90.82
986.00,90.79
985.00,90.74
984.00,90.69
983.00,90.64
982.00,90.58
981.00,90.51
980.00,90.43
979.00,90.35
978.00,90.26
977.00,90.18
976.00,90.11
975.00,90.05
974.00,90.00
973.00,89.97
972.00,89.95
971.00,89.94
970.00,89.93
969.00,89.93
968.00,89.93
967.00,89.92
966.00,89.92
965.00,89.91
964.00,89.90
963.00,89.89
962.00,89.86
961.00,89.84
960.00,89.81
959.00,89.77
958.00,89.72
957.00,89.67
956.00,89.60
955.00,89.53
954.00,89.44
953.00,89.35
952.00,89.25
951.00,89.14
950.00,89.02
949.00,88.91
948.00,88.81
947.00,88.73
946.00,88.66
945.00,88.61
944.00,88.56
943.00,88.53
942.00,88.51
941.00,88.49
940.00,88.47
939.00,88.45
938.00,88.44
937.00,88.43
936.00,88.43
935.00,88.42
934.00,88.41
933.00,88.40
932.00,88.38
931.00,88.36
930.00,88.33
929.00,88.28
928.00,88.22
927.00,88.16
926.00,88.08
925.00,88.01
924.00,87.93
923.00,87.86
922.00,87.80
921.00,87.74
920.00,87.69
919.00,87.65
918.00,87.61
917.00,87.57
916.00,87.52
915.00,87.47
914.00,87.41
913.00,87.34
912.00,87.27
911.00,87.20
910.00,87.12
909.00,87.04
908.00,86.95
907.00,86.86
906.00,86.77
905.00,86.67
904.00,86.57
903.00,86.47
902.00,86.37
901.00,86.27
900.00,86.17
899.00,86.08
898.00,85.99
897.00,85.89
896.00,85.80
895.00,85.70
894.00,85.60
893.00,85.49
892.00,85.38
891.00,85.27
890.00,85.15
889.00,85.03
888.00,84.90
887.00,84.76
886.00,84.62
885.00,84.47
884.00,84.32
883.00,84.17
882.00,84.02
881.00,83.86
880.00,83.71
879.00,83.56
878.00,83.41
877.00,83.27
876.00,83.14
875.00,83.01
874.00,82.89
873.00,82.77
872.00,82.65
871.00,82.53
870.00,82.42
869.00,82.31
868.00,82.19
867.00,82.08
866.00,81.96
865.00,81.84
864.00,81.72
863.00,81.59
862.00,81.46
861.00,81.33
860.00,81.19
859.00,81.04
858.00,80.90
857.00,80.75
856.00,80.60
855.00,80.44
854.00,80.29
853.00,80.14
852.00,79.99
851.00,79.84
850.00,79.71
849.00,79.57
848.00,79.44
847.00,79.30
846.00,79.17
845.00,79.04
844.00,78.91
843.00,78.77
842.00,78.64
841.00,78.50
840.00,78.36
839.00,78.22
838.00,78.08
837.00,77.94
836.00,77.79
835.00,77.64
834.00,77.49
833.00,77.34
832.00,77.19
831.00,77.04
830.00,76.89
829.00,76.74
828.00,76.57
827.00,76.40
826.00,76.22
825.00,76.05
824.00,75.86
823.00,75.67
822.00,75.48
821.00,75.29
820.00,75.08
819.00,74.87
818.00,74.66
817.00,74.45
816.00,74.24
815.00,74.04
814.00,73.88
813.00,73.72
812.00,73.57
811.00,73.43
810.00,73.30
809.00,73.16
808.00,73.01
807.00,72.86
806.00,72.71
805.00,72.56
804.00,72.40
803.00,72.23
802.00,72.07
801.00,71.91
800.00,71.74
799.00,71.57
798.00,71.41
797.00,71.24
796.00,71.07
795.00,70.89
794.00,70.72
793.00,70.55
792.00,70.37
791.00,70.20
790.00,70.04
789.00,69.87
788.00,69.70
787.00,69.52
786.00,69.35
785.00,69.19
784.00,69.01
783.00,68.84
782.00,68.68
781.00,68.52
780.00,68.35
779.00,68.18
778.00,68.02
777.00,67.85
776.00,67.67
775.00,67.50
774.00,67.34
773.00,67.17
772.00,67.00
771.00,66.83
770.00,66.67
769.00,66.51
768.00,66.33
767.00,66.16
766.00,66.00
765.00,65.84
764.00,65.66
763.00,65.49
762.00,65.33
761.00,65.17
760.00,65.00
759.00,64.83
758.00,64.66
757.00,64.50
756.00,64.32
755.00,64.15
754.00,64.00
753.00,63.84
752.00,63.67
751.00,63.50
750.00,63.34
749.00,63.18
748.00,63.02
747.00,62.85
746.00,62.70
745.00,62.54
744.00,62.37
743.00,62.21
742.00,62.06
741.00,61.91
740.00,61.75
739.00,61.58
738.00,61.43
737.00,61.28
736.00,61.11
735.00,60.94
734.00,60.78
733.00,60.62
732.00,60.45
731.00,60.29
730.00,60.13
729.00,59.97
728.00,59.79
727.00,59.62
726.00,59.46
725.00,59.30
724.00,59.13
723.00,58.95
722.00,58.78
721.00,58.62
720.00,58.43
719.00,58.27
718.00,58.12
717.00,57.98
716.00,57.82
715.00,57.66
714.00,57.52
713.00,57.37
712.00,57.20
711.00,57.03
710.00,56.87
709.00,56.71
708.00,56.53
707.00,56.36
706.00,56.20
705.00,56.04
704.00,55.86
703.00,55.70
702.00,55.55
701.00,55.41
700.00,55.26
699.00,55.11
698.00,54.99
697.00,54.86
696.00,54.72
695.00,54.57
694.00,54.44
693.00,54.31
692.00,54.17
691.00,54.03
690.00,53.91
689.00,53.79
688.00,53.64
687.00,53.49
686.00,53.37
685.00,53.25
684.00,53.10
683.00,52.95
682.00,52.83
681.00,52.70
680.00,52.54
679.00,52.39
678.00,52.26
677.00,52.13
676.00,51.98
675.00,51.83
674.00,51.71
673.00,51.59
672.00,51.45
671.00,51.36
670.00,51.33
669.00,51.33
668.00,51.25
667.00,51.08
666.00,50.88
665.00,50.69
664.00,50.50
663.00,50.34
662.00,50.23
661.00,50.12
660.00,49.99
659.00,49.86
658.00,49.76
657.00,49.66
656.00,49.52
655.00,49.40
654.00,49.33
653.00,49.25
652.00,49.11
651.00,48.98
650.00,48.91
649.00,48.83
648.00,48.71
647.00,48.60
646.00,48.54
645.00,48.47
644.00,48.34
643.00,48.22
642.00,48.16
641.00,48.09
640.00,47.97
639.00,47.87
638.00,47.84
637.00,47.79
636.00,47.66
635.00,47.55
634.00,47.50
633.00,47.43
632.00,47.29
631.00,47.16
630.00,47.10
629.00,47.03
628.00,46.89
627.00,46.77
626.00,46.74
625.00,46.69
624.00,46.54
623.00,46.43
622.00,46.42
621.00,46.41
620.00,46.30
619.00,46.21
618.00,46.24
617.00,46.23
616.00,46.10
615.00,45.99
614.00,45.99
613.00,45.97
612.00,45.85
611.00,45.77
610.00,45.81
609.00,45.83
608.00,45.71
607.00,45.62
606.00,45.66
605.00,45.67
604.00,45.54
603.00,45.44
602.00,45.46
601.00,45.45
600.00,45.34
599.00,45.28
598.00,45.36
597.00,45.41
596.00,45.30
595.00,45.20
594.00,45.26
593.00,45.31
592.00,45.21
591.00,45.16
590.00,45.28
589.00,45.33
588.00,45.19
587.00,45.10
586.00,45.22
585.00,45.31
584.00,45.18
583.00,45.09
582.00,45.22
581.00,45.30
580.00,45.09
579.00,44.92
578.00,45.02
577.00,45.07
576.00,44.83
575.00,44.69
574.00,44.90
573.00,45.00
572.00,44.75
571.00,44.59
570.00,44.80
569.00,44.90
568.00,44.57
567.00,44.31
566.00,44.44
565.00,44.53
564.00,44.29
563.00,44.17
562.00,44.43
561.00,44.59
560.00,44.38
559.00,44.30
558.00,44.64
557.00,44.85
556.00,44.58
555.00,44.32
554.00,44.44
553.00,44.48
552.00,44.11
551.00,43.88
550.00,44.16
549.00,44.40
548.00,44.16
547.00,44.02
546.00,44.41
545.00,44.64
544.00,44.29
543.00,44.09
542.00,44.56
541.00,44.92
540.00,44.55
539.00,44.19
538.00,44.45
537.00,44.59
536.00,43.98
535.00,43.52
534.00,43.88
533.00,43.99
532.00,43.11
531.00,42.60
530.00,43.49
529.00,44.28
528.00,43.52
527.00,42.75
526.00,43.56
525.00,43.93
524.00,41.99
523.00,40.71
522.00,42.61
521.00,44.64
520.00,43.19
519.00,41.37
518.00,43.22
517.00,44.74
516.00,40.65
515.00,38.93
514.00,44.89
513.00,48.07
512.00,43.65
511.00,31.28
510.00,48.16
509.00,38.14
508.00,59.95
507.00,29.07
506.00,78.73
505.00,39.80
504.00,109.83
503.00,364.42
502.00,131.35
501.00,68.31
500.00,132.97
499.00,106.63
498.00,105.66
497.00,76.69
496.00,116.85
495.00,122.79
494.00,88.30
493.00,94.24
492.00,122.70
491.00,106.33
490.00,73.73
489.00,105.55
488.00,138.12
487.00,101.60
486.00,178.04
485.00,104.12
484.00,40.14
483.00,115.12
482.00,103.53
481.00,84.55
480.00,117.07
479.00,94.82
478.00,86.13
477.00,91.96
476.00,69.05
475.00,85.62
474.00,69.14
473.00,81.12
472.00,70.82
471.00,54.11
470.00,112.03
469.00,101.30
468.00,97.68
467.00,104.53
466.00,60.78
465.00,78.32
464.00,56.04
463.00,66.11
462.00,73.69
461.00,71.68
460.00,114.75
459.00,113.83
458.00,94.06
457.00,64.25
456.00,94.18
455.00,79.10
454.00,70.08
453.00,113.43
452.00,95.85
451.00,52.65
450.00,88.26
449.00,135.32
448.00,82.15
447.00,72.80
446.00,83.06
445.00,71.85
444.00,79.30
443.00,66.50
442.00,90.93
441.00,118.58
440.00,29.01
439.00,52.31
438.00,65.81
437.00,80.39
436.00,129.36
435.00,113.58
434.00,206.42
433.00,88.65
432.00,27.91
431.00,59.73
430.00,31.78
429.00,102.44
428.00,92.33
427.00,88.99
426.00,94.51
425.00,102.12
424.00,98.55
423.00,44.32
422.00,92.48
421.00,133.93
420.00,83.84
419.00,92.46
418.00,84.93
417.00,59.38
416.00,88.50
415.00,76.77
414.00,85.20
413.00,110.37
412.00,37.41
411.00,71.22
410.00,58.92
409.00,81.62
408.00,244.65
407.00,105.40
406.00,11.56
405.00,73.93
404.00,102.08
403.00,106.19
402.00,88.96
401.00,97.40
400.00,92.30
