Created as New Dataset,Sample 003 By FTIR User 2.0 Date Friday, April 12 2024
cm-1,%T
4000.00,100.57
3999.00,100.57
3998.00,100.57
3997.00,100.57
3996.00,100.56
3995.00,100.56
3994.00,100.56
3993.00,100.56
3992.00,100.56
3991.00,100.56
3990.00,100.56
3989.00,100.57
3988.00,100.57
3987.00,100.57
3986.00,100.57
3985.00,100.56
3984.00,100.56
3983.00,100.56
3982.00,100.56
3981.00,100.56
3980.00,100.56
3979.00,100.56
3978.00,100.56
3977.00,100.56
3976.00,100.56
3975.00,100.55
3974.00,100.55
3973.00,100.55
3972.00,100.55
3971.00,100.56
3970.00,100.56
3969.00,100.56
3968.00,100.55
3967.00,100.55
3966.00,100.55
3965.00,100.56
3964.00,100.56
3963.00,100.56
3962.00,100.55
3961.00,100.55
3960.00,100.54
3959.00,100.54
3958.00,100.54
3957.00,100.54
3956.00,100.54
3955.00,100.54
3954.00,100.54
3953.00,100.53
3952.00,100.54
3951.00,100.54
3950.00,100.54
3949.00,100.55
3948.00,100.55
3947.00,100.55
3946.00,100.54
3945.00,100.54
3944.00,100.54
3943.00,100.54
3942.00,100.54
3941.00,100.54
3940.00,100.54
3939.00,100.54
3938.00,100.54
3937.00,100.54
3936.00,100.54
3935.00,100.55
3934.00,100.55
3933.00,100.55
3932.00,100.55
3931.00,100.55
3930.00,100.54
3929.00,100.54
3928.00,100.53
3927.00,100.53
3926.00,100.53
3925.00,100.52
3924.00,100.52
3923.00,100.53
3922.00,100.53
3921.00,100.53
3920.00,100.53
3919.00,100.53
3918.00,100.53
3917.00,100.53
3916.00,100.53
3915.00,100.53
3914.00,100.53
3913.00,100.53
3912.00,100.52
3911.00,100.52
3910.00,100.51
3909.00,100.51
3908.00,100.52
3907.00,100.52
3906.00,100.53
3905.00,100.53
3904.00,100.53
3903.00,100.53
3902.00,100.53
3901.00,100.52
3900.00,100.51
3899.00,100.50
3898.00,100.50
3897.00,100.50
3896.00,100.50
3895.00,100.50
3894.00,100.51
3893.00,100.52
3892.00,100.52
3891.00,100.52
3890.00,100.51
3889.00,100.51
3888.00,100.52
3887.00,100.51
3886.00,100.50
3885.00,100.49
3884.00,100.50
3883.00,100.51
3882.00,100.52
3881.00,100.51
3880.00,100.50
3879.00,100.50
3878.00,100.50
3877.00,100.50
3876.00,100.50
3875.00,100.48
3874.00,100.47
3873.00,100.48
3872.00,100.50
3871.00,100.50
3870.00,100.49
3869.00,100.48
3868.00,100.47
3867.00,100.48
3866.00,100.49
3865.00,100.48
3864.00,100.48
3863.00,100.49
3862.00,100.49
3861.00,100.49
3860.00,100.47
3859.00,100.45
3858.00,100.42
3857.00,100.42
3856.00,100.43
3855.00,100.45
3854.00,100.47
3853.00,100.47
3852.00,100.47
3851.00,100.46
3850.00,100.46
3849.00,100.46
3848.00,100.45
3847.00,100.45
3846.00,100.45
3845.00,100.45
3844.00,100.45
3843.00,100.45
3842.00,100.45
3841.00,100.45
3840.00,100.45
3839.00,100.45
3838.00,100.44
3837.00,100.44
3836.00,100.43
3835.00,100.43
3834.00,100.43
3833.00,100.43
3832.00,100.42
3831.00,100.42
3830.00,100.42
3829.00,100.43
3828.00,100.44
3827.00,100.43
3826.00,100.42
3825.00,100.42
3824.00,100.43
3823.00,100.43
3822.00,100.42
3821.00,100.40
3820.00,100.39
3819.00,100.40
3818.00,100.41
3817.00,100.41
3816.00,100.38
3815.00,100.37
3814.00,100.38
3813.00,100.39
3812.00,100.39
3811.00,100.39
3810.00,100.39
3809.00,100.39
3808.00,100.39
3807.00,100.39
3806.00,100.38
3805.00,100.39
3804.00,100.39
3803.00,100.39
3802.00,100.37
3801.00,100.35
3800.00,100.35
3799.00,100.37
3798.00,100.37
3797.00,100.36
3796.00,100.35
3795.00,100.35
3794.00,100.35
3793.00,100.36
3792.00,100.36
3791.00,100.36
3790.00,100.36
3789.00,100.36
3788.00,100.36
3787.00,100.36
3786.00,100.36
3785.00,100.36
3784.00,100.35
3783.00,100.35
3782.00,100.35
3781.00,100.34
3780.00,100.34
3779.00,100.33
3778.00,100.32
3777.00,100.32
3776.00,100.31
3775.00,100.30
3774.00,100.29
3773.00,100.29
3772.00,100.29
3771.00,100.29
3770.00,100.29
3769.00,100.29
3768.00,100.29
3767.00,100.29
3766.00,100.28
3765.00,100.26
3764.00,100.24
3763.00,100.24
3762.00,100.24
3761.00,100.23
3760.00,100.22
3759.00,100.22
3758.00,100.21
3757.00,100.21
3756.00,100.20
3755.00,100.18
3754.00,100.17
3753.00,100.16
3752.00,100.15
3751.00,100.14
3750.00,100.12
3749.00,100.10
3748.00,100.09
3747.00,100.09
3746.00,100.09
3745.00,100.08
3744.00,100.06
3743.00,100.07
3742.00,100.08
3741.00,100.08
3740.00,100.07
3739.00,100.06
3738.00,100.06
3737.00,100.06
3736.00,100.06
3735.00,100.05
3734.00,100.03
3733.00,100.02
3732.00,100.00
3731.00,99.99
3730.00,99.98
3729.00,99.97
3728.00,99.97
3727.00,99.95
3726.00,99.94
3725.00,99.93
3724.00,99.93
3723.00,99.92
3722.00,99.91
3721.00,99.89
3720.00,99.87
3719.00,99.85
3718.00,99.83
3717.00,99.81
3716.00,99.78
3715.00,99.76
3714.00,99.74
3713.00,99.72
3712.00,99.70
3711.00,99.67
3710.00,99.65
3709.00,99.63
3708.00,99.61
3707.00,99.58
3706.00,99.55
3705.00,99.52
3704.00,99.49
3703.00,99.46
3702.00,99.42
3701.00,99.38
3700.00,99.35
3699.00,99.31
3698.00,99.27
3697.00,99.22
3696.00,99.17
3695.00,99.13
3694.00,99.09
3693.00,99.05
3692.00,99.00
3691.00,98.95
3690.00,98.88
3689.00,98.80
3688.00,98.71
3687.00,98.64
3686.00,98.58
3685.00,98.52
3684.00,98.46
3683.00,98.39
3682.00,98.32
3681.00,98.25
3680.00,98.17
3679.00,98.10
3678.00,98.04
3677.00,97.96
3676.00,97.83
3675.00,97.69
3674.00,97.58
3673.00,97.52
3672.00,97.44
3671.00,97.33
3670.00,97.18
3669.00,97.05
3668.00,96.95
3667.00,96.87
3666.00,96.77
3665.00,96.67
3664.00,96.57
3663.00,96.46
3662.00,96.35
3661.00,96.24
3660.00,96.13
3659.00,96.02
3658.00,95.91
3657.00,95.77
3656.00,95.64
3655.00,95.51
3654.00,95.41
3653.00,95.31
3652.00,95.20
3651.00,95.06
3650.00,94.91
3649.00,94.77
3648.00,94.64
3647.00,94.52
3646.00,94.42
3645.00,94.32
3644.00,94.22
3643.00,94.11
3642.00,93.99
3641.00,93.87
3640.00,93.76
3639.00,93.65
3638.00,93.54
3637.00,93.43
3636.00,93.33
3635.00,93.21
3634.00,93.10
3633.00,93.00
3632.00,92.91
3631.00,92.82
3630.00,92.70
3629.00,92.56
3628.00,92.42
3627.00,92.32
3626.00,92.24
3625.00,92.14
3624.00,92.04
3623.00,91.93
3622.00,91.82
3621.00,91.72
3620.00,91.60
3619.00,91.49
3618.00,91.38
3617.00,91.29
3616.00,91.20
3615.00,91.10
3614.00,90.99
3613.00,90.87
3612.00,90.77
3611.00,90.68
3610.00,90.58
3609.00,90.47
3608.00,90.35
3607.00,90.24
3606.00,90.14
3605.00,90.04
3604.00,89.94
3603.00,89.83
3602.00,89.71
3601.00,89.60
3600.00,89.49
3599.00,89.40
3598.00,89.30
3597.00,89.20
3596.00,89.09
3595.00,88.97
3594.00,88.85
3593.00,88.75
3592.00,88.65
3591.00,88.56
3590.00,88.46
3589.00,88.34
3588.00,88.20
3587.00,88.06
3586.00,87.95
3585.00,87.85
3584.00,87.76
3583.00,87.65
3582.00,87.54
3581.00,87.42
3580.00,87.31
3579.00,87.20
3578.00,87.09
3577.00,86.98
3576.00,86.87
3575.00,86.75
3574.00,86.64
3573.00,86.52
3572.00,86.40
3571.00,86.28
3570.00,86.16
3569.00,86.04
3568.00,85.92
3567.00,85.80
3566.00,85.69
3565.00,85.58
3564.00,85.47
3563.00,85.35
3562.00,85.22
3561.00,85.09
3560.00,84.97
3559.00,84.85
3558.00,84.73
3557.00,84.61
3556.00,84.49
3555.00,84.37
3554.00,84.23
3553.00,84.10
3552.00,83.97
3551.00,83.85
3550.00,83.73
3549.00,83.61
3548.00,83.47
3547.00,83.32
3546.00,83.17
3545.00,83.04
3544.00,82.93
3543.00,82.84
3542.00,82.74
3541.00,82.63
3540.00,82.51
3539.00,82.37
3538.00,82.23
3537.00,82.09
3536.00,81.97
3535.00,81.86
3534.00,81.75
3533.00,81.65
3532.00,81.53
3531.00,81.40
3530.00,81.27
3529.00,81.14
3528.00,81.01
3527.00,80.88
3526.00,80.75
3525.00,80.61
3524.00,80.48
3523.00,80.37
3522.00,80.27
3521.00,80.17
3520.00,80.05
3519.00,79.93
3518.00,79.79
3517.00,79.65
3516.00,79.51
3515.00,79.38
3514.00,79.25
3513.00,79.14
3512.00,79.03
3511.00,78.92
3510.00,78.80
3509.00,78.68
3508.00,78.56
3507.00,78.44
3506.00,78.30
3505.00,78.15
3504.00,78.01
3503.00,77.87
3502.00,77.76
3501.00,77.65
3500.00,77.54
3499.00,77.42
3498.00,77.29
3497.00,77.16
3496.00,77.04
3495.00,76.93
3494.00,76.82
3493.00,76.72
3492.00,76.60
3491.00,76.49
3490.00,76.36
3489.00,76.22
3488.00,76.09
3487.00,75.96
3486.00,75.86
3485.00,75.76
3484.00,75.65
3483.00,75.53
3482.00,75.39
3481.00,75.26
3480.00,75.13
3479.00,75.03
3478.00,74.93
3477.00,74.83
3476.00,74.72
3475.00,74.60
3474.00,74.47
3473.00,74.34
3472.00,74.20
3471.00,74.06
3470.00,73.91
3469.00,73.77
3468.00,73.65
3467.00,73.55
3466.00,73.46
3465.00,73.37
3464.00,73.28
3463.00,73.16
3462.00,73.04
3461.00,72.92
3460.00,72.80
3459.00,72.71
3458.00,72.62
3457.00,72.53
3456.00,72.42
3455.00,72.31
3454.00,72.19
3453.00,72.07
3452.00,71.95
3451.00,71.83
3450.00,71.71
3449.00,71.58
3448.00,71.45
3447.00,71.34
3446.00,71.25
3445.00,71.16
3444.00,71.06
3443.00,70.95
3442.00,70.83
3441.00,70.71
3440.00,70.57
3439.00,70.42
3438.00,70.28
3437.00,70.14
3436.00,70.03
3435.00,69.93
3434.00,69.84
3433.00,69.74
3432.00,69.64
3431.00,69.54
3430.00,69.44
3429.00,69.35
3428.00,69.27
3427.00,69.19
3426.00,69.11
3425.00,69.03
3424.00,68.93
3423.00,68.82
3422.00,68.71
3421.00,68.61
3420.00,68.52
3419.00,68.44
3418.00,68.36
3417.00,68.26
3416.00,68.14
3415.00,68.02
3414.00,67.90
3413.00,67.80
3412.00,67.71
3411.00,67.63
3410.00,67.54
3409.00,67.47
3408.00,67.39
3407.00,67.32
3406.00,67.25
3405.00,67.15
3404.00,67.05
3403.00,66.93
3402.00,66.83
3401.00,66.74
3400.00,66.67
3399.00,66.62
3398.00,66.58
3397.00,66.53
3396.00,66.46
3395.00,66.38
3394.00,66.30
3393.00,66.22
3392.00,66.16
3391.00,66.12
3390.00,66.10
3389.00,66.07
3388.00,66.04
3387.00,66.00
3386.00,65.96
3385.00,65.91
3384.00,65.85
3383.00,65.80
3382.00,65.74
3381.00,65.68
3380.00,65.63
3379.00,65.58
3378.00,65.53
3377.00,65.49
3376.00,65.46
3375.00,65.42
3374.00,65.39
3373.00,65.34
3372.00,65.28
3371.00,65.21
3370.00,65.16
3369.00,65.11
3368.00,65.08
3367.00,65.07
3366.00,65.07
3365.00,65.07
3364.00,65.06
3363.00,65.04
3362.00,65.01
3361.00,64.99
3360.00,64.97
3359.00,64.96
3358.00,64.95
3357.00,64.94
3356.00,64.92
3355.00,64.90
3354.00,64.86
3353.00,64.82
3352.00,64.79
3351.00,64.76
3350.00,64.75
3349.00,64.75
3348.00,64.75
3347.00,64.74
3346.00,64.72
3345.00,64.69
3344.00,64.67
3343.00,64.64
3342.00,64.62
3341.00,64.60
3340.00,64.58
3339.00,64.56
3338.00,64.55
3337.00,64.55
3336.00,64.56
3335.00,64.58
3334.00,64.59
3333.00,64.59
3332.00,64.58
3331.00,64.57
3330.00,64.55
3329.00,64.53
3328.00,64.51
3327.00,64.49
3326.00,64.48
3325.00,64.48
3324.00,64.49
3323.00,64.50
3322.00,64.50
3321.00,64.50
3320.00,64.50
3319.00,64.50
3318.00,64.50
3317.00,64.50
3316.00,64.49
3315.00,64.49
3314.00,64.48
3313.00,64.48
3312.00,64.47
3311.00,64.46
3310.00,64.46
3309.00,64.45
3308.00,64.45
3307.00,64.46
3306.00,64.46
3305.00,64.47
3304.00,64.48
3303.00,64.50
3302.00,64.51
3301.00,64.51
3300.00,64.52
3299.00,64.52
3298.00,64.51
3297.00,64.51
3296.00,64.51
3295.00,64.51
3294.00,64.51
3293.00,64.52
3292.00,64.53
3291.00,64.54
3290.00,64.56
3289.00,64.57
3288.00,64.59
3287.00,64.60
3286.00,64.61
3285.00,64.62
3284.00,64.62
3283.00,64.63
3282.00,64.64
3281.00,64.65
3280.00,64.66
3279.00,64.67
3278.00,64.68
3277.00,64.69
3276.00,64.70
3275.00,64.71
3274.00,64.73
3273.00,64.75
3272.00,64.77
3271.00,64.79
3270.00,64.81
3269.00,64.84
3268.00,64.87
3267.00,64.90
3266.00,64.92
3265.00,64.94
3264.00,64.97
3263.00,65.00
3262.00,65.03
3261.00,65.06
3260.00,65.09
3259.00,65.11
3258.00,65.14
3257.00,65.16
3256.00,65.19
3255.00,65.23
3254.00,65.27
3253.00,65.31
3252.00,65.36
3251.00,65.40
3250.00,65.44
3249.00,65.47
3248.00,65.51
3247.00,65.55
3246.00,65.59
3245.00,65.65
3244.00,65.71
3243.00,65.77
3242.00,65.83
3241.00,65.88
3240.00,65.93
3239.00,65.98
3238.00,66.03
3237.00,66.08
3236.00,66.13
3235.00,66.17
3234.00,66.23
3233.00,66.29
3232.00,66.36
3231.00,66.44
3230.00,66.52
3229.00,66.60
3228.00,66.67
3227.00,66.75
3226.00,66.83
3225.00,66.91
3224.00,66.98
3223.00,67.05
3222.00,67.12
3221.00,67.20
3220.00,67.28
3219.00,67.37
3218.00,67.46
3217.00,67.55
3216.00,67.64
3215.00,67.74
3214.00,67.83
3213.00,67.94
3212.00,68.04
3211.00,68.14
3210.00,68.24
3209.00,68.34
3208.00,68.44
3207.00,68.55
3206.00,68.66
3205.00,68.77
3204.00,68.89
3203.00,69.00
3202.00,69.11
3201.00,69.23
3200.00,69.35
3199.00,69.47
3198.00,69.60
3197.00,69.72
3196.00,69.85
3195.00,69.98
3194.00,70.10
3193.00,70.23
3192.00,70.36
3191.00,70.48
3190.00,70.61
3189.00,70.75
3188.00,70.89
3187.00,71.03
3186.00,71.18
3185.00,71.32
3184.00,71.46
3183.00,71.60
3182.00,71.73
3181.00,71.87
3180.00,72.01
3179.00,72.16
3178.00,72.31
3177.00,72.47
3176.00,72.62
3175.00,72.77
3174.00,72.92
3173.00,73.07
3172.00,73.22
3171.00,73.37
3170.00,73.52
3169.00,73.67
3168.00,73.82
3167.00,73.98
3166.00,74.13
3165.00,74.29
3164.00,74.44
3163.00,74.59
3162.00,74.74
3161.00,74.89
3160.00,75.05
3159.00,75.20
3158.00,75.36
3157.00,75.51
3156.00,75.65
3155.00,75.79
3154.00,75.93
3153.00,76.08
3152.00,76.24
3151.00,76.41
3150.00,76.58
3149.00,76.74
3148.00,76.90
3147.00,77.05
3146.00,77.21
3145.00,77.36
3144.00,77.51
3143.00,77.66
3142.00,77.80
3141.00,77.95
3140.00,78.09
3139.00,78.24
3138.00,78.40
3137.00,78.55
3136.00,78.71
3135.00,78.86
3134.00,79.00
3133.00,79.15
3132.00,79.30
3131.00,79.45
3130.00,79.59
3129.00,79.74
3128.00,79.88
3127.00,80.02
3126.00,80.16
3125.00,80.29
3124.00,80.43
3123.00,80.56
3122.00,80.69
3121.00,80.83
3120.00,80.97
3119.00,81.10
3118.00,81.23
3117.00,81.37
3116.00,81.50
3115.00,81.63
3114.00,81.75
3113.00,81.88
3112.00,82.00
3111.00,82.13
3110.00,82.25
3109.00,82.37
3108.00,82.49
3107.00,82.61
3106.00,82.72
3105.00,82.84
3104.00,82.95
3103.00,83.06
3102.00,83.18
3101.00,83.30
3100.00,83.42
3099.00,83.53
3098.00,83.64
3097.00,83.74
3096.00,83.85
3095.00,83.97
3094.00,84.08
3093.00,84.20
3092.00,84.31
3091.00,84.42
3090.00,84.53
3089.00,84.64
3088.00,84.75
3087.00,84.85
3086.00,84.96
3085.00,85.07
3084.00,85.18
3083.00,85.29
3082.00,85.40
3081.00,85.51
3080.00,85.62
3079.00,85.73
3078.00,85.84
3077.00,85.95
3076.00,86.06
3075.00,86.17
3074.00,86.27
3073.00,86.38
3072.00,86.49
3071.00,86.60
3070.00,86.72
3069.00,86.83
3068.00,86.94
3067.00,87.05
3066.00,87.16
3065.00,87.28
3064.00,87.39
3063.00,87.51
3062.00,87.62
3061.00,87.73
3060.00,87.84
3059.00,87.95
3058.00,88.06
3057.00,88.18
3056.00,88.29
3055.00,88.40
3054.00,88.52
3053.00,88.63
3052.00,88.74
3051.00,88.85
3050.00,88.95
3049.00,89.06
3048.00,89.17
3047.00,89.28
3046.00,89.38
3045.00,89.49
3044.00,89.59
3043.00,89.69
3042.00,89.79
3041.00,89.88
3040.00,89.98
3039.00,90.08
3038.00,90.17
3037.00,90.27
3036.00,90.37
3035.00,90.46
3034.00,90.55
3033.00,90.64
3032.00,90.73
3031.00,90.82
3030.00,90.91
3029.00,91.00
3028.00,91.08
3027.00,91.17
3026.00,91.26
3025.00,91.34
3024.00,91.43
3023.00,91.51
3022.00,91.59
3021.00,91.67
3020.00,91.75
3019.00,91.83
3018.00,91.90
3017.00,91.98
3016.00,92.05
3015.00,92.13
3014.00,92.20
3013.00,92.27
3012.00,92.33
3011.00,92.39
3010.00,92.46
3009.00,92.51
3008.00,92.57
3007.00,92.62
3006.00,92.68
3005.00,92.73
3004.00,92.78
3003.00,92.83
3002.00,92.88
3001.00,92.93
3000.00,92.97
2999.00,93.01
2998.00,93.05
2997.00,93.09
2996.00,93.13
2995.00,93.17
2994.00,93.21
2993.00,93.24
2992.00,93.28
2991.00,93.31
2990.00,93.34
2989.00,93.37
2988.00,93.40
2987.00,93.43
2986.00,93.46
2985.00,93.50
2984.00,93.53
2983.00,93.56
2982.00,93.59
2981.00,93.62
2980.00,93.66
2979.00,93.69
2978.00,93.73
2977.00,93.78
2976.00,93.82
2975.00,93.86
2974.00,93.91
2973.00,93.95
2972.00,93.99
2971.00,94.03
2970.00,94.08
2969.00,94.12
2968.00,94.16
2967.00,94.20
2966.00,94.24
2965.00,94.27
2964.00,94.31
2963.00,94.36
2962.00,94.40
2961.00,94.44
2960.00,94.48
2959.00,94.52
2958.00,94.56
2957.00,94.60
2956.00,94.64
2955.00,94.69
2954.00,94.74
2953.00,94.79
2952.00,94.84
2951.00,94.88
2950.00,94.92
2949.00,94.96
2948.00,95.00
2947.00,95.04
2946.00,95.08
2945.00,95.12
2944.00,95.15
2943.00,95.17
2942.00,95.20
2941.00,95.22
2940.00,95.25
2939.00,95.28
2938.00,95.31
2937.00,95.34
2936.00,95.38
2935.00,95.41
2934.00,95.45
2933.00,95.49
2932.00,95.54
2931.00,95.59
2930.00,95.63
2929.00,95.66
2928.00,95.68
2927.00,95.71
2926.00,95.73
2925.00,95.75
2924.00,95.77
2923.00,95.78
2922.00,95.79
2921.00,95.79
2920.00,95.79
2919.00,95.79
2918.00,95.80
2917.00,95.83
2916.00,95.88
2915.00,95.95
2914.00,96.04
2913.00,96.14
2912.00,96.23
2911.00,96.32
2910.00,96.40
2909.00,96.47
2908.00,96.53
2907.00,96.58
2906.00,96.63
2905.00,96.68
2904.00,96.72
2903.00,96.76
2902.00,96.80
2901.00,96.83
2900.00,96.87
2899.00,96.90
2898.00,96.93
2897.00,96.96
2896.00,96.99
2895.00,97.01
2894.00,97.03
2893.00,97.05
2892.00,97.06
2891.00,97.08
2890.00,97.10
2889.00,97.12
2888.00,97.14
2887.00,97.17
2886.00,97.19
2885.00,97.21
2884.00,97.24
2883.00,97.27
2882.00,97.29
2881.00,97.32
2880.00,97.35
2879.00,97.37
2878.00,97.40
2877.00,97.44
2876.00,97.47
2875.00,97.51
2874.00,97.55
2873.00,97.58
2872.00,97.60
2871.00,97.63
2870.00,97.66
2869.00,97.69
2868.00,97.72
2867.00,97.75
2866.00,97.78
2865.00,97.81
2864.00,97.83
2863.00,97.85
2862.00,97.88
2861.00,97.90
2860.00,97.92
2859.00,97.93
2858.00,97.94
2857.00,97.95
2856.00,97.95
2855.00,97.94
2854.00,97.93
2853.00,97.90
2852.00,97.87
2851.00,97.84
2850.00,97.83
2849.00,97.84
2848.00,97.87
2847.00,97.93
2846.00,98.00
2845.00,98.07
2844.00,98.14
2843.00,98.20
2842.00,98.26
2841.00,98.31
2840.00,98.35
2839.00,98.38
2838.00,98.41
2837.00,98.43
2836.00,98.45
2835.00,98.46
2834.00,98.48
2833.00,98.50
2832.00,98.51
2831.00,98.53
2830.00,98.54
2829.00,98.55
2828.00,98.57
2827.00,98.58
2826.00,98.60
2825.00,98.62
2824.00,98.63
2823.00,98.64
2822.00,98.66
2821.00,98.67
2820.00,98.69
2819.00,98.70
2818.00,98.71
2817.00,98.72
2816.00,98.74
2815.00,98.75
2814.00,98.77
2813.00,98.79
2812.00,98.80
2811.00,98.82
2810.00,98.83
2809.00,98.84
2808.00,98.85
2807.00,98.85
2806.00,98.86
2805.00,98.87
2804.00,98.88
2803.00,98.90
2802.00,98.91
2801.00,98.93
2800.00,98.95
2799.00,98.96
2798.00,98.98
2797.00,98.99
2796.00,99.00
2795.00,99.00
2794.00,99.01
2793.00,99.03
2792.00,99.04
2791.00,99.05
2790.00,99.07
2789.00,99.07
2788.00,99.08
2787.00,99.08
2786.00,99.09
2785.00,99.10
2784.00,99.11
2783.00,99.12
2782.00,99.13
2781.00,99.14
2780.00,99.15
2779.00,99.16
2778.00,99.17
2777.00,99.19
2776.00,99.20
2775.00,99.21
2774.00,99.22
2773.00,99.22
2772.00,99.23
2771.00,99.24
2770.00,99.24
2769.00,99.25
2768.00,99.26
2767.00,99.27
2766.00,99.28
2765.00,99.29
2764.00,99.29
2763.00,99.30
2762.00,99.31
2761.00,99.32
2760.00,99.32
2759.00,99.33
2758.00,99.35
2757.00,99.35
2756.00,99.36
2755.00,99.37
2754.00,99.37
2753.00,99.38
2752.00,99.39
2751.00,99.40
2750.00,99.41
2749.00,99.42
2748.00,99.43
2747.00,99.43
2746.00,99.43
2745.00,99.43
2744.00,99.44
2743.00,99.44
2742.00,99.45
2741.00,99.46
2740.00,99.46
2739.00,99.47
2738.00,99.48
2737.00,99.49
2736.00,99.49
2735.00,99.49
2734.00,99.50
2733.00,99.51
2732.00,99.51
2731.00,99.52
2730.00,99.53
2729.00,99.53
2728.00,99.54
2727.00,99.55
2726.00,99.56
2725.00,99.56
2724.00,99.57
2723.00,99.57
2722.00,99.57
2721.00,99.57
2720.00,99.57
2719.00,99.58
2718.00,99.58
2717.00,99.59
2716.00,99.59
2715.00,99.60
2714.00,99.60
2713.00,99.61
2712.00,99.61
2711.00,99.61
2710.00,99.62
2709.00,99.62
2708.00,99.62
2707.00,99.62
2706.00,99.63
2705.00,99.63
2704.00,99.63
2703.00,99.64
2702.00,99.64
2701.00,99.64
2700.00,99.65
2699.00,99.65
2698.00,99.65
2697.00,99.65
2696.00,99.65
2695.00,99.66
2694.00,99.66
2693.00,99.66
2692.00,99.67
2691.00,99.67
2690.00,99.67
2689.00,99.68
2688.00,99.67
2687.00,99.67
2686.00,99.67
2685.00,99.67
2684.00,99.68
2683.00,99.68
2682.00,99.69
2681.00,99.70
2680.00,99.70
2679.00,99.70
2678.00,99.70
2677.00,99.70
2676.00,99.70
2675.00,99.70
2674.00,99.70
2673.00,99.70
2672.00,99.70
2671.00,99.70
2670.00,99.71
2669.00,99.71
2668.00,99.71
2667.00,99.71
2666.00,99.71
2665.00,99.71
2664.00,99.71
2663.00,99.71
2662.00,99.71
2661.00,99.71
2660.00,99.71
2659.00,99.71
2658.00,99.72
2657.00,99.72
2656.00,99.72
2655.00,99.72
2654.00,99.72
2653.00,99.73
2652.00,99.73
2651.00,99.72
2650.00,99.72
2649.00,99.72
2648.00,99.72
2647.00,99.72
2646.00,99.72
2645.00,99.73
2644.00,99.73
2643.00,99.73
2642.00,99.74
2641.00,99.74
2640.00,99.74
2639.00,99.74
2638.00,99.74
2637.00,99.74
2636.00,99.74
2635.00,99.74
2634.00,99.74
2633.00,99.74
2632.00,99.74
2631.00,99.74
2630.00,99.75
2629.00,99.75
2628.00,99.75
2627.00,99.75
2626.00,99.75
2625.00,99.75
2624.00,99.75
2623.00,99.75
2622.00,99.75
2621.00,99.75
2620.00,99.75
2619.00,99.75
2618.00,99.75
2617.00,99.75
2616.00,99.75
2615.00,99.76
2614.00,99.76
2613.00,99.76
2612.00,99.76
2611.00,99.76
2610.00,99.76
2609.00,99.75
2608.00,99.75
2607.00,99.75
2606.00,99.75
2605.00,99.75
2604.00,99.75
2603.00,99.75
2602.00,99.75
2601.00,99.75
2600.00,99.76
2599.00,99.76
2598.00,99.76
2597.00,99.75
2596.00,99.75
2595.00,99.75
2594.00,99.75
2593.00,99.75
2592.00,99.75
2591.00,99.75
2590.00,99.75
2589.00,99.75
2588.00,99.75
2587.00,99.74
2586.00,99.74
2585.00,99.75
2584.00,99.75
2583.00,99.75
2582.00,99.75
2581.00,99.75
2580.00,99.75
2579.00,99.75
2578.00,99.75
2577.00,99.75
2576.00,99.75
2575.00,99.74
2574.00,99.74
2573.00,99.74
2572.00,99.74
2571.00,99.74
2570.00,99.74
2569.00,99.74
2568.00,99.74
2567.00,99.74
2566.00,99.74
2565.00,99.74
2564.00,99.73
2563.00,99.73
2562.00,99.73
2561.00,99.73
2560.00,99.73
2559.00,99.73
2558.00,99.73
2557.00,99.73
2556.00,99.73
2555.00,99.72
2554.00,99.72
2553.00,99.72
2552.00,99.72
2551.00,99.72
2550.00,99.72
2549.00,99.72
2548.00,99.72
2547.00,99.72
2546.00,99.72
2545.00,99.72
2544.00,99.72
2543.00,99.71
2542.00,99.71
2541.00,99.72
2540.00,99.71
2539.00,99.71
2538.00,99.71
2537.00,99.71
2536.00,99.70
2535.00,99.70
2534.00,99.70
2533.00,99.70
2532.00,99.69
2531.00,99.69
2530.00,99.69
2529.00,99.68
2528.00,99.68
2527.00,99.68
2526.00,99.68
2525.00,99.68
2524.00,99.68
2523.00,99.68
2522.00,99.69
2521.00,99.68
2520.00,99.68
2519.00,99.68
2518.00,99.67
2517.00,99.67
2516.00,99.67
2515.00,99.67
2514.00,99.67
2513.00,99.66
2512.00,99.66
2511.00,99.66
2510.00,99.66
2509.00,99.65
2508.00,99.65
2507.00,99.64
2506.00,99.64
2505.00,99.65
2504.00,99.64
2503.00,99.64
2502.00,99.64
2501.00,99.64
2500.00,99.64
2499.00,99.64
2498.00,99.63
2497.00,99.63
2496.00,99.63
2495.00,99.63
2494.00,99.63
2493.00,99.63
2492.00,99.62
2491.00,99.62
2490.00,99.62
2489.00,99.62
2488.00,99.62
2487.00,99.61
2486.00,99.61
2485.00,99.61
2484.00,99.61
2483.00,99.61
2482.00,99.61
2481.00,99.61
2480.00,99.60
2479.00,99.60
2478.00,99.60
2477.00,99.60
2476.00,99.60
2475.00,99.60
2474.00,99.60
2473.00,99.60
2472.00,99.59
2471.00,99.59
2470.00,99.59
2469.00,99.59
2468.00,99.59
2467.00,99.59
2466.00,99.59
2465.00,99.58
2464.00,99.58
2463.00,99.57
2462.00,99.57
2461.00,99.57
2460.00,99.57
2459.00,99.56
2458.00,99.55
2457.00,99.55
2456.00,99.54
2455.00,99.54
2454.00,99.54
2453.00,99.54
2452.00,99.54
2451.00,99.54
2450.00,99.53
2449.00,99.53
2448.00,99.52
2447.00,99.52
2446.00,99.51
2445.00,99.51
2444.00,99.51
2443.00,99.50
2442.00,99.50
2441.00,99.50
2440.00,99.50
2439.00,99.50
2438.00,99.50
2437.00,99.50
2436.00,99.50
2435.00,99.49
2434.00,99.49
2433.00,99.49
2432.00,99.48
2431.00,99.48
2430.00,99.48
2429.00,99.48
2428.00,99.47
2427.00,99.47
2426.00,99.46
2425.00,99.46
2424.00,99.45
2423.00,99.45
2422.00,99.45
2421.00,99.45
2420.00,99.45
2419.00,99.44
2418.00,99.44
2417.00,99.43
2416.00,99.43
2415.00,99.42
2414.00,99.42
2413.00,99.42
2412.00,99.41
2411.00,99.41
2410.00,99.41
2409.00,99.40
2408.00,99.40
2407.00,99.40
2406.00,99.40
2405.00,99.40
2404.00,99.39
2403.00,99.39
2402.00,99.38
2401.00,99.38
2400.00,99.38
2399.00,99.38
2398.00,99.37
2397.00,99.37
2396.00,99.36
2395.00,99.36
2394.00,99.36
2393.00,99.36
2392.00,99.35
2391.00,99.35
2390.00,99.34
2389.00,99.34
2388.00,99.34
2387.00,99.33
2386.00,99.33
2385.00,99.33
2384.00,99.33
2383.00,99.33
2382.00,99.34
2381.00,99.34
2380.00,99.34
2379.00,99.35
2378.00,99.35
2377.00,99.35
2376.00,99.34
2375.00,99.32
2374.00,99.31
2373.00,99.30
2372.00,99.29
2371.00,99.28
2370.00,99.28
2369.00,99.29
2368.00,99.29
2367.00,99.29
2366.00,99.28
2365.00,99.26
2364.00,99.24
2363.00,99.23
2362.00,99.23
2361.00,99.23
2360.00,99.23
2359.00,99.23
2358.00,99.24
2357.00,99.23
2356.00,99.22
2355.00,99.21
2354.00,99.21
2353.00,99.20
2352.00,99.19
2351.00,99.19
2350.00,99.18
2349.00,99.18
2348.00,99.17
2347.00,99.17
2346.00,99.17
2345.00,99.17
2344.00,99.15
2343.00,99.13
2342.00,99.12
2341.00,99.12
2340.00,99.12
2339.00,99.12
2338.00,99.12
2337.00,99.11
2336.00,99.10
2335.00,99.10
2334.00,99.09
2333.00,99.09
2332.00,99.08
2331.00,99.07
2330.00,99.06
2329.00,99.06
2328.00,99.04
2327.00,99.03
2326.00,99.02
2325.00,99.01
2324.00,99.00
2323.00,98.99
2322.00,98.99
2321.00,98.99
2320.00,98.98
2319.00,98.97
2318.00,98.97
2317.00,98.96
2316.00,98.95
2315.00,98.94
2314.00,98.94
2313.00,98.93
2312.00,98.93
2311.00,98.92
2310.00,98.92
2309.00,98.91
2308.00,98.90
2307.00,98.90
2306.00,98.89
2305.00,98.89
2304.00,98.87
2303.00,98.86
2302.00,98.85
2301.00,98.84
2300.00,98.83
2299.00,98.82
2298.00,98.81
2297.00,98.81
2296.00,98.80
2295.00,98.80
2294.00,98.79
2293.00,98.79
2292.00,98.78
2291.00,98.77
2290.00,98.76
2289.00,98.75
2288.00,98.74
2287.00,98.73
2286.00,98.72
2285.00,98.70
2284.00,98.69
2283.00,98.68
2282.00,98.68
2281.00,98.68
2280.00,98.67
2279.00,98.67
2278.00,98.66
2277.00,98.65
2276.00,98.64
2275.00,98.63
2274.00,98.62
2273.00,98.61
2272.00,98.60
2271.00,98.59
2270.00,98.59
2269.00,98.58
2268.00,98.58
2267.00,98.57
2266.00,98.56
2265.00,98.55
2264.00,98.54
2263.00,98.53
2262.00,98.52
2261.00,98.52
2260.00,98.51
2259.00,98.50
2258.00,98.49
2257.00,98.48
2256.00,98.47
2255.00,98.45
2254.00,98.44
2253.00,98.43
2252.00,98.42
2251.00,98.42
2250.00,98.42
2249.00,98.43
2248.00,98.42
2247.00,98.41
2246.00,98.39
2245.00,98.38
2244.00,98.36
2243.00,98.36
2242.00,98.36
2241.00,98.36
2240.00,98.35
2239.00,98.34
2238.00,98.33
2237.00,98.33
2236.00,98.32
2235.00,98.31
2234.00,98.30
2233.00,98.28
2232.00,98.27
2231.00,98.25
2230.00,98.25
2229.00,98.24
2228.00,98.23
2227.00,98.22
2226.00,98.22
2225.00,98.21
2224.00,98.19
2223.00,98.17
2222.00,98.16
2221.00,98.16
2220.00,98.15
2219.00,98.14
2218.00,98.14
2217.00,98.14
2216.00,98.13
2215.00,98.11
2214.00,98.11
2213.00,98.10
2212.00,98.09
2211.00,98.07
2210.00,98.06
2209.00,98.05
2208.00,98.04
2207.00,98.04
2206.00,98.04
2205.00,98.04
2204.00,98.02
2203.00,98.01
2202.00,98.00
2201.00,97.99
2200.00,97.98
2199.00,97.97
2198.00,97.96
2197.00,97.95
2196.00,97.94
2195.00,97.93
2194.00,97.93
2193.00,97.92
2192.00,97.91
2191.00,97.90
2190.00,97.90
2189.00,97.90
2188.00,97.89
2187.00,97.87
2186.00,97.86
2185.00,97.86
2184.00,97.85
2183.00,97.85
2182.00,97.86
2181.00,97.85
2180.00,97.83
2179.00,97.81
2178.00,97.79
2177.00,97.78
2176.00,97.77
2175.00,97.78
2174.00,97.78
2173.00,97.78
2172.00,97.77
2171.00,97.75
2170.00,97.74
2169.00,97.71
2168.00,97.69
2167.00,97.67
2166.00,97.67
2165.00,97.67
2164.00,97.66
2163.00,97.66
2162.00,97.66
2161.00,97.67
2160.00,97.67
2159.00,97.67
2158.00,97.68
2157.00,97.69
2156.00,97.68
2155.00,97.69
2154.00,97.69
2153.00,97.69
2152.00,97.66
2151.00,97.65
2150.00,97.64
2149.00,97.64
2148.00,97.64
2147.00,97.65
2146.00,97.66
2145.00,97.67
2144.00,97.67
2143.00,97.66
2142.00,97.66
2141.00,97.65
2140.00,97.64
2139.00,97.64
2138.00,97.65
2137.00,97.65
2136.00,97.64
2135.00,97.64
2134.00,97.64
2133.00,97.65
2132.00,97.65
2131.00,97.65
2130.00,97.65
2129.00,97.65
2128.00,97.65
2127.00,97.65
2126.00,97.65
2125.00,97.65
2124.00,97.64
2123.00,97.64
2122.00,97.64
2121.00,97.64
2120.00,97.63
2119.00,97.63
2118.00,97.64
2117.00,97.64
2116.00,97.64
2115.00,97.63
2114.00,97.63
2113.00,97.63
2112.00,97.63
2111.00,97.63
2110.00,97.64
2109.00,97.65
2108.00,97.64
2107.00,97.64
2106.00,97.64
2105.00,97.64
2104.00,97.64
2103.00,97.64
2102.00,97.65
2101.00,97.65
2100.00,97.65
2099.00,97.65
2098.00,97.66
2097.00,97.67
2096.00,97.67
2095.00,97.67
2094.00,97.68
2093.00,97.69
2092.00,97.69
2091.00,97.69
2090.00,97.69
2089.00,97.70
2088.00,97.69
2087.00,97.69
2086.00,97.69
2085.00,97.69
2084.00,97.69
2083.00,97.70
2082.00,97.71
2081.00,97.72
2080.00,97.72
2079.00,97.73
2078.00,97.73
2077.00,97.74
2076.00,97.74
2075.00,97.74
2074.00,97.75
2073.00,97.75
2072.00,97.75
2071.00,97.76
2070.00,97.77
2069.00,97.78
2068.00,97.78
2067.00,97.78
2066.00,97.78
2065.00,97.79
2064.00,97.79
2063.00,97.80
2062.00,97.81
2061.00,97.83
2060.00,97.83
2059.00,97.83
2058.00,97.83
2057.00,97.84
2056.00,97.83
2055.00,97.83
2054.00,97.84
2053.00,97.84
2052.00,97.84
2051.00,97.84
2050.00,97.85
2049.00,97.85
2048.00,97.85
2047.00,97.86
2046.00,97.87
2045.00,97.88
2044.00,97.89
2043.00,97.89
2042.00,97.91
2041.00,97.93
2040.00,97.94
2039.00,97.95
2038.00,97.96
2037.00,97.95
2036.00,97.94
2035.00,97.94
2034.00,97.95
2033.00,97.96
2032.00,97.97
2031.00,97.98
2030.00,98.00
2029.00,98.02
2028.00,98.03
2027.00,98.03
2026.00,98.05
2025.00,98.06
2024.00,98.07
2023.00,98.07
2022.00,98.09
2021.00,98.11
2020.00,98.10
2019.00,98.10
2018.00,98.11
2017.00,98.12
2016.00,98.12
2015.00,98.13
2014.00,98.14
2013.00,98.15
2012.00,98.15
2011.00,98.16
2010.00,98.17
2009.00,98.18
2008.00,98.19
2007.00,98.20
2006.00,98.22
2005.00,98.23
2004.00,98.22
2003.00,98.22
2002.00,98.24
2001.00,98.25
2000.00,98.26
1999.00,98.27
1998.00,98.28
1997.00,98.28
1996.00,98.27
1995.00,98.28
1994.00,98.29
1993.00,98.30
1992.00,98.31
1991.00,98.32
1990.00,98.34
1989.00,98.35
1988.00,98.35
1987.00,98.35
1986.00,98.36
1985.00,98.36
1984.00,98.35
1983.00,98.35
1982.00,98.37
1981.00,98.37
1980.00,98.37
1979.00,98.37
1978.00,98.39
1977.00,98.40
1976.00,98.40
1975.00,98.41
1974.00,98.44
1973.00,98.46
1972.00,98.46
1971.00,98.47
1970.00,98.49
1969.00,98.50
1968.00,98.49
1967.00,98.49
1966.00,98.50
1965.00,98.51
1964.00,98.50
1963.00,98.51
1962.00,98.53
1961.00,98.55
1960.00,98.55
1959.00,98.55
1958.00,98.56
1957.00,98.56
1956.00,98.56
1955.00,98.56
1954.00,98.57
1953.00,98.59
1952.00,98.59
1951.00,98.61
1950.00,98.62
1949.00,98.63
1948.00,98.63
1947.00,98.64
1946.00,98.66
1945.00,98.68
1944.00,98.67
1943.00,98.66
1942.00,98.67
1941.00,98.67
1940.00,98.65
1939.00,98.65
1938.00,98.66
1937.00,98.68
1936.00,98.68
1935.00,98.68
1934.00,98.69
1933.00,98.70
1932.00,98.70
1931.00,98.70
1930.00,98.70
1929.00,98.71
1928.00,98.70
1927.00,98.71
1926.00,98.72
1925.00,98.73
1924.00,98.73
1923.00,98.74
1922.00,98.75
1921.00,98.76
1920.00,98.76
1919.00,98.76
1918.00,98.76
1917.00,98.76
1916.00,98.75
1915.00,98.74
1914.00,98.74
1913.00,98.75
1912.00,98.75
1911.00,98.75
1910.00,98.76
1909.00,98.76
1908.00,98.76
1907.00,98.76
1906.00,98.76
1905.00,98.76
1904.00,98.75
1903.00,98.74
1902.00,98.75
1901.00,98.75
1900.00,98.75
1899.00,98.76
1898.00,98.77
1897.00,98.78
1896.00,98.77
1895.00,98.77
1894.00,98.78
1893.00,98.79
1892.00,98.79
1891.00,98.78
1890.00,98.79
1889.00,98.79
1888.00,98.78
1887.00,98.77
1886.00,98.77
1885.00,98.77
1884.00,98.77
1883.00,98.76
1882.00,98.77
1881.00,98.77
1880.00,98.76
1879.00,98.76
1878.00,98.76
1877.00,98.76
1876.00,98.75
1875.00,98.75
1874.00,98.77
1873.00,98.80
1872.00,98.82
1871.00,98.84
1870.00,98.86
1869.00,98.86
1868.00,98.83
1867.00,98.80
1866.00,98.78
1865.00,98.75
1864.00,98.73
1863.00,98.72
1862.00,98.73
1861.00,98.73
1860.00,98.72
1859.00,98.72
1858.00,98.73
1857.00,98.73
1856.00,98.72
1855.00,98.72
1854.00,98.72
1853.00,98.72
1852.00,98.72
1851.00,98.71
1850.00,98.71
1849.00,98.73
1848.00,98.76
1847.00,98.79
1846.00,98.81
1845.00,98.81
1844.00,98.78
1843.00,98.74
1842.00,98.71
1841.00,98.69
1840.00,98.67
1839.00,98.66
1838.00,98.67
1837.00,98.66
1836.00,98.65
1835.00,98.66
1834.00,98.68
1833.00,98.71
1832.00,98.73
1831.00,98.74
1830.00,98.74
1829.00,98.73
1828.00,98.70
1827.00,98.66
1826.00,98.64
1825.00,98.63
1824.00,98.60
1823.00,98.58
1822.00,98.57
1821.00,98.56
1820.00,98.55
1819.00,98.54
1818.00,98.54
1817.00,98.54
1816.00,98.54
1815.00,98.53
1814.00,98.53
1813.00,98.54
1812.00,98.53
1811.00,98.52
1810.00,98.51
1809.00,98.49
1808.00,98.47
1807.00,98.46
1806.00,98.46
1805.00,98.45
1804.00,98.45
1803.00,98.44
1802.00,98.45
1801.00,98.46
1800.00,98.45
1799.00,98.42
1798.00,98.40
1797.00,98.40
1796.00,98.42
1795.00,98.44
1794.00,98.45
1793.00,98.44
1792.00,98.39
1791.00,98.33
1790.00,98.29
1789.00,98.26
1788.00,98.23
1787.00,98.21
1786.00,98.20
1785.00,98.20
1784.00,98.19
1783.00,98.17
1782.00,98.16
1781.00,98.14
1780.00,98.12
1779.00,98.10
1778.00,98.09
1777.00,98.11
1776.00,98.14
1775.00,98.18
1774.00,98.21
1773.00,98.22
1772.00,98.17
1771.00,98.09
1770.00,98.01
1769.00,97.93
1768.00,97.86
1767.00,97.83
1766.00,97.82
1765.00,97.81
1764.00,97.79
1763.00,97.77
1762.00,97.75
1761.00,97.72
1760.00,97.67
1759.00,97.62
1758.00,97.58
1757.00,97.55
1756.00,97.52
1755.00,97.50
1754.00,97.48
1753.00,97.47
1752.00,97.44
1751.00,97.42
1750.00,97.39
1749.00,97.33
1748.00,97.25
1747.00,97.17
1746.00,97.11
1745.00,97.06
1744.00,97.02
1743.00,96.99
1742.00,96.97
1741.00,96.93
1740.00,96.86
1739.00,96.79
1738.00,96.77
1737.00,96.77
1736.00,96.74
1735.00,96.67
1734.00,96.58
1733.00,96.45
1732.00,96.29
1731.00,96.15
1730.00,96.04
1729.00,95.94
1728.00,95.84
1727.00,95.74
1726.00,95.66
1725.00,95.56
1724.00,95.46
1723.00,95.37
1722.00,95.32
1721.00,95.30
1720.00,95.25
1719.00,95.18
1718.00,95.06
1717.00,94.88
1716.00,94.63
1715.00,94.40
1714.00,94.21
1713.00,94.05
1712.00,93.88
1711.00,93.72
1710.00,93.60
1709.00,93.49
1708.00,93.35
1707.00,93.18
1706.00,92.99
1705.00,92.79
1704.00,92.63
1703.00,92.50
1702.00,92.38
1701.00,92.15
1700.00,91.77
1699.00,91.39
1698.00,91.09
1697.00,90.73
1696.00,90.25
1695.00,89.78
1694.00,89.41
1693.00,89.10
1692.00,88.79
1691.00,88.45
1690.00,88.10
1689.00,87.76
1688.00,87.48
1687.00,87.24
1686.00,87.00
1685.00,86.59
1684.00,85.94
1683.00,85.32
1682.00,84.87
1681.00,84.47
1680.00,84.06
1679.00,83.69
1678.00,83.37
1677.00,83.02
1676.00,82.56
1675.00,82.03
1674.00,81.56
1673.00,81.17
1672.00,80.79
1671.00,80.33
1670.00,79.79
1669.00,79.19
1668.00,78.64
1667.00,78.20
1666.00,77.84
1665.00,77.50
1664.00,77.08
1663.00,76.60
1662.00,76.14
1661.00,75.74
1660.00,75.38
1659.00,75.05
1658.00,74.79
1657.00,74.59
1656.00,74.41
1655.00,74.17
1654.00,73.86
1653.00,73.54
1652.00,73.27
1651.00,73.05
1650.00,72.87
1649.00,72.67
1648.00,72.43
1647.00,72.18
1646.00,72.01
1645.00,71.88
1644.00,71.72
1643.00,71.55
1642.00,71.41
1641.00,71.32
1640.00,71.26
1639.00,71.21
1638.00,71.17
1637.00,71.17
1636.00,71.23
1635.00,71.33
1634.00,71.39
1633.00,71.41
1632.00,71.40
1631.00,71.42
1630.00,71.51
1629.00,71.70
1628.00,71.98
1627.00,72.27
1626.00,72.56
1625.00,72.84
1624.00,73.21
1623.00,73.69
1622.00,74.20
1621.00,74.62
1620.00,74.93
1619.00,75.22
1618.00,75.61
1617.00,76.24
1616.00,76.97
1615.00,77.55
1614.00,77.95
1613.00,78.30
1612.00,78.67
1611.00,79.10
1610.00,79.58
1609.00,80.08
1608.00,80.59
1607.00,81.06
1606.00,81.48
1605.00,81.87
1604.00,82.26
1603.00,82.65
1602.00,83.02
1601.00,83.38
1600.00,83.70
1599.00,83.99
1598.00,84.26
1597.00,84.51
1596.00,84.76
1595.00,85.01
1594.00,85.23
1593.00,85.41
1592.00,85.58
1591.00,85.73
1590.00,85.86
1589.00,85.97
1588.00,86.07
1587.00,86.15
1586.00,86.21
1585.00,86.25
1584.00,86.28
1583.00,86.30
1582.00,86.30
1581.00,86.31
1580.00,86.32
1579.00,86.32
1578.00,86.29
1577.00,86.22
1576.00,86.13
1575.00,86.01
1574.00,85.88
1573.00,85.75
1572.00,85.63
1571.00,85.50
1570.00,85.33
1569.00,85.14
1568.00,84.98
1567.00,84.81
1566.00,84.64
1565.00,84.49
1564.00,84.38
1563.00,84.33
1562.00,84.31
1561.00,84.28
1560.00,84.23
1559.00,84.22
1558.00,84.24
1557.00,84.14
1556.00,84.01
1555.00,83.91
1554.00,83.87
1553.00,83.87
1552.00,83.88
1551.00,83.91
1550.00,84.00
1549.00,84.14
1548.00,84.26
1547.00,84.35
1546.00,84.45
1545.00,84.62
1544.00,84.87
1543.00,85.14
1542.00,85.37
1541.00,85.62
1540.00,85.94
1539.00,86.19
1538.00,86.26
1537.00,86.27
1536.00,86.29
1535.00,86.35
1534.00,86.53
1533.00,86.80
1532.00,87.03
1531.00,87.17
1530.00,87.28
1529.00,87.41
1528.00,87.59
1527.00,87.82
1526.00,88.08
1525.00,88.34
1524.00,88.53
1523.00,88.70
1522.00,88.92
1521.00,89.21
1520.00,89.42
1519.00,89.52
1518.00,89.60
1517.00,89.75
1516.00,89.95
1515.00,90.12
1514.00,90.23
1513.00,90.35
1512.00,90.50
1511.00,90.67
1510.00,90.85
1509.00,91.04
1508.00,91.28
1507.00,91.61
1506.00,91.84
1505.00,91.88
1504.00,91.83
1503.00,91.80
1502.00,91.83
1501.00,91.92
1500.00,92.03
1499.00,92.14
1498.00,92.24
1497.00,92.32
1496.00,92.39
1495.00,92.43
1494.00,92.46
1493.00,92.49
1492.00,92.51
1491.00,92.55
1490.00,92.60
1489.00,92.64
1488.00,92.62
1487.00,92.56
1486.00,92.50
1485.00,92.44
1484.00,92.38
1483.00,92.31
1482.00,92.24
1481.00,92.17
1480.00,92.11
1479.00,92.03
1478.00,91.96
1477.00,91.89
1476.00,91.82
1475.00,91.74
1474.00,91.62
1473.00,91.46
1472.00,91.26
1471.00,91.08
1470.00,90.93
1469.00,90.82
1468.00,90.73
1467.00,90.66
1466.00,90.57
1465.00,90.46
1464.00,90.35
1463.00,90.26
1462.00,90.19
1461.00,90.15
1460.00,90.15
1459.00,90.14
1458.00,90.12
1457.00,90.11
1456.00,90.10
1455.00,90.08
1454.00,90.06
1453.00,90.08
1452.00,90.14
1451.00,90.24
1450.00,90.34
1449.00,90.45
1448.00,90.58
1447.00,90.70
1446.00,90.79
1445.00,90.85
1444.00,90.90
1443.00,90.96
1442.00,91.02
1441.00,91.10
1440.00,91.19
1439.00,91.28
1438.00,91.37
1437.00,91.48
1436.00,91.60
1435.00,91.68
1434.00,91.71
1433.00,91.72
1432.00,91.75
1431.00,91.78
1430.00,91.81
1429.00,91.82
1428.00,91.82
1427.00,91.81
1426.00,91.79
1425.00,91.77
1424.00,91.78
1423.00,91.79
1422.00,91.80
1421.00,91.79
1420.00,91.75
1419.00,91.71
1418.00,91.65
1417.00,91.58
1416.00,91.51
1415.00,91.44
1414.00,91.38
1413.00,91.32
1412.00,91.28
1411.00,91.24
1410.00,91.22
1409.00,91.21
1408.00,91.21
1407.00,91.21
1406.00,91.23
1405.00,91.26
1404.00,91.31
1403.00,91.35
1402.00,91.39
1401.00,91.43
1400.00,91.47
1399.00,91.53
1398.00,91.59
1397.00,91.64
1396.00,91.67
1395.00,91.71
1394.00,91.74
1393.00,91.75
1392.00,91.76
1391.00,91.77
1390.00,91.78
1389.00,91.79
1388.00,91.82
1387.00,91.85
1386.00,91.88
1385.00,91.91
1384.00,91.93
1383.00,91.95
1382.00,91.99
1381.00,92.03
1380.00,92.08
1379.00,92.13
1378.00,92.19
1377.00,92.25
1376.00,92.29
1375.00,92.34
1374.00,92.40
1373.00,92.44
1372.00,92.48
1371.00,92.51
1370.00,92.54
1369.00,92.59
1368.00,92.64
1367.00,92.69
1366.00,92.72
1365.00,92.74
1364.00,92.76
1363.00,92.78
1362.00,92.79
1361.00,92.80
1360.00,92.78
1359.00,92.76
1358.00,92.73
1357.00,92.70
1356.00,92.67
1355.00,92.62
1354.00,92.57
1353.00,92.52
1352.00,92.46
1351.00,92.39
1350.00,92.32
1349.00,92.25
1348.00,92.18
1347.00,92.10
1346.00,92.02
1345.00,91.94
1344.00,91.86
1343.00,91.79
1342.00,91.71
1341.00,91.65
1340.00,91.60
1339.00,91.58
1338.00,91.58
1337.00,91.60
1336.00,91.63
1335.00,91.68
1334.00,91.73
1333.00,91.79
1332.00,91.86
1331.00,91.92
1330.00,91.98
1329.00,92.03
1328.00,92.07
1327.00,92.10
1326.00,92.13
1325.00,92.14
1324.00,92.15
1323.00,92.16
1322.00,92.16
1321.00,92.16
1320.00,92.16
1319.00,92.17
1318.00,92.18
1317.00,92.18
1316.00,92.19
1315.00,92.20
1314.00,92.22
1313.00,92.24
1312.00,92.27
1311.00,92.30
1310.00,92.32
1309.00,92.33
1308.00,92.34
1307.00,92.35
1306.00,92.36
1305.00,92.37
1304.00,92.37
1303.00,92.38
1302.00,92.39
1301.00,92.39
1300.00,92.39
1299.00,92.38
1298.00,92.37
1297.00,92.34
1296.00,92.31
1295.00,92.28
1294.00,92.23
1293.00,92.18
1292.00,92.13
1291.00,92.07
1290.00,92.01
1289.00,91.95
1288.00,91.90
1287.00,91.87
1286.00,91.83
1285.00,91.81
1284.00,91.80
1283.00,91.79
1282.00,91.79
1281.00,91.80
1280.00,91.80
1279.00,91.81
1278.00,91.82
1277.00,91.83
1276.00,91.83
1275.00,91.83
1274.00,91.82
1273.00,91.80
1272.00,91.78
1271.00,91.76
1270.00,91.73
1269.00,91.70
1268.00,91.66
1267.00,91.62
1266.00,91.58
1265.00,91.54
1264.00,91.50
1263.00,91.45
1262.00,91.40
1261.00,91.35
1260.00,91.31
1259.00,91.26
1258.00,91.21
1257.00,91.16
1256.00,91.12
1255.00,91.07
1254.00,91.03
1253.00,90.98
1252.00,90.94
1251.00,90.89
1250.00,90.85
1249.00,90.81
1248.00,90.77
1247.00,90.74
1246.00,90.72
1245.00,90.71
1244.00,90.71
1243.00,90.72
1242.00,90.75
1241.00,90.79
1240.00,90.84
1239.00,90.90
1238.00,90.98
1237.00,91.07
1236.00,91.16
1235.00,91.27
1234.00,91.37
1233.00,91.48
1232.00,91.59
1231.00,91.71
1230.00,91.82
1229.00,91.94
1228.00,92.05
1227.00,92.16
1226.00,92.27
1225.00,92.37
1224.00,92.46
1223.00,92.54
1222.00,92.61
1221.00,92.67
1220.00,92.72
1219.00,92.75
1218.00,92.77
1217.00,92.77
1216.00,92.77
1215.00,92.75
1214.00,92.72
1213.00,92.69
1212.00,92.64
1211.00,92.60
1210.00,92.54
1209.00,92.49
1208.00,92.43
1207.00,92.38
1206.00,92.34
1205.00,92.30
1204.00,92.29
1203.00,92.28
1202.00,92.30
1201.00,92.34
1200.00,92.39
1199.00,92.45
1198.00,92.51
1197.00,92.57
1196.00,92.63
1195.00,92.68
1194.00,92.72
1193.00,92.77
1192.00,92.81
1191.00,92.85
1190.00,92.88
1189.00,92.92
1188.00,92.95
1187.00,92.98
1186.00,93.00
1185.00,93.02
1184.00,93.04
1183.00,93.05
1182.00,93.05
1181.00,93.05
1180.00,93.05
1179.00,93.04
1178.00,93.03
1177.00,93.02
1176.00,93.00
1175.00,92.99
1174.00,92.97
1173.00,92.95
1172.00,92.93
1171.00,92.90
1170.00,92.87
1169.00,92.84
1168.00,92.81
1167.00,92.78
1166.00,92.76
1165.00,92.74
1164.00,92.73
1163.00,92.74
1162.00,92.75
1161.00,92.77
1160.00,92.79
1159.00,92.82
1158.00,92.85
1157.00,92.88
1156.00,92.91
1155.00,92.95
1154.00,92.97
1153.00,93.00
1152.00,93.02
1151.00,93.05
1150.00,93.06
1149.00,93.08
1148.00,93.08
1147.00,93.09
1146.00,93.09
1145.00,93.09
1144.00,93.08
1143.00,93.07
1142.00,93.06
1141.00,93.05
1140.00,93.03
1139.00,93.01
1138.00,92.99
1137.00,92.96
1136.00,92.94
1135.00,92.91
1134.00,92.87
1133.00,92.84
1132.00,92.79
1131.00,92.75
1130.00,92.70
1129.00,92.66
1128.00,92.62
1127.00,92.59
1126.00,92.57
1125.00,92.56
1124.00,92.56
1123.00,92.56
1122.00,92.55
1121.00,92.55
1120.00,92.54
1119.00,92.54
1118.00,92.52
1117.00,92.51
1116.00,92.49
1115.00,92.47
1114.00,92.45
1113.00,92.42
1112.00,92.40
1111.00,92.37
1110.00,92.34
1109.00,92.32
1108.00,92.29
1107.00,92.26
1106.00,92.24
1105.00,92.21
1104.00,92.19
1103.00,92.17
1102.00,92.15
1101.00,92.14
1100.00,92.13
1099.00,92.12
1098.00,92.11
1097.00,92.11
1096.00,92.10
1095.00,92.09
1094.00,92.09
1093.00,92.08
1092.00,92.06
1091.00,92.04
1090.00,92.00
1089.00,91.95
1088.00,91.90
1087.00,91.83
1086.00,91.76
1085.00,91.70
1084.00,91.64
1083.00,91.60
1082.00,91.59
1081.00,91.60
1080.00,91.63
1079.00,91.68
1078.00,91.73
1077.00,91.80
1076.00,91.86
1075.00,91.92
1074.00,91.98
1073.00,92.03
1072.00,92.07
1071.00,92.10
1070.00,92.12
1069.00,92.14
1068.00,92.15
1067.00,92.16
1066.00,92.17
1065.00,92.18
1064.00,92.19
1063.00,92.20
1062.00,92.22
1061.00,92.23
1060.00,92.25
1059.00,92.27
1058.00,92.28
1057.00,92.29
1056.00,92.30
1055.00,92.31
1054.00,92.31
1053.00,92.32
1052.00,92.33
1051.00,92.34
1050.00,92.35
1049.00,92.36
1048.00,92.36
1047.00,92.37
1046.00,92.37
1045.00,92.36
1044.00,92.35
1043.00,92.34
1042.00,92.33
1041.00,92.30
1040.00,92.27
1039.00,92.23
1038.00,92.18
1037.00,92.13
1036.00,92.08
1035.00,92.04
1034.00,92.02
1033.00,92.00
1032.00,92.00
1031.00,92.01
1030.00,92.03
1029.00,92.06
1028.00,92.09
1027.00,92.12
1026.00,92.15
1025.00,92.17
1024.00,92.19
1023.00,92.21
1022.00,92.23
1021.00,92.24
1020.00,92.24
1019.00,92.24
1018.00,92.24
1017.00,92.24
1016.00,92.24
1015.00,92.24
1014.00,92.24
1013.00,92.25
1012.00,92.26
1011.00,92.27
1010.00,92.28
1009.00,92.28
1008.00,92.29
1007.00,92.30
1006.00,92.30
1005.00,92.31
1004.00,92.31
1003.00,92.31
1002.00,92.31
1001.00,92.31
1000.00,92.30
999.00,92.29
998.00,92.29
997.00,92.28
996.00,92.27
995.00,92.26
994.00,92.25
993.00,92.24
992.00,92.22
991.00,92.20
990.00,92.18
989.00,92.15
988.00,92.13
987.00,92.10
986.00,92.07
985.00,92.04
984.00,92.01
983.00,91.97
982.00,91.94
981.00,91.90
980.00,91.85
979.00,91.81
978.00,91.77
977.00,91.72
976.00,91.68
975.00,91.64
974.00,91.61
973.00,91.58
972.00,91.55
971.00,91.52
970.00,91.49
969.00,91.47
968.00,91.44
967.00,91.41
966.00,91.38
965.00,91.35
964.00,91.32
963.00,91.29
962.00,91.25
961.00,91.21
960.00,91.17
959.00,91.13
958.00,91.08
957.00,91.03
956.00,90.97
955.00,90.91
954.00,90.84
953.00,90.77
952.00,90.68
951.00,90.59
950.00,90.50
949.00,90.41
948.00,90.32
947.00,90.25
946.00,90.18
945.00,90.13
944.00,90.08
943.00,90.04
942.00,90.01
941.00,89.97
940.00,89.94
939.00,89.90
938.00,89.86
937.00,89.83
936.00,89.79
935.00,89.75
934.00,89.70
933.00,89.65
932.00,89.60
931.00,89.54
930.00,89.48
929.00,89.42
928.00,89.35
927.00,89.28
926.00,89.20
925.00,89.13
924.00,89.05
923.00,88.98
922.00,88.90
921.00,88.83
920.00,88.77
919.00,88.70
918.00,88.63
917.00,88.56
916.00,88.48
915.00,88.40
914.00,88.32
913.00,88.23
912.00,88.15
911.00,88.06
910.00,87.98
909.00,87.89
908.00,87.80
907.00,87.70
906.00,87.61
905.00,87.51
904.00,87.41
903.00,87.31
902.00,87.21
901.00,87.11
900.00,87.01
899.00,86.91
898.00,86.81
897.00,86.71
896.00,86.61
895.00,86.51
894.00,86.40
893.00,86.29
892.00,86.17
891.00,86.06
890.00,85.95
889.00,85.84
888.00,85.72
887.00,85.60
886.00,85.47
885.00,85.35
884.00,85.22
883.00,85.10
882.00,84.97
881.00,84.84
880.00,84.71
879.00,84.57
878.00,84.45
877.00,84.32
876.00,84.19
875.00,84.06
874.00,83.94
873.00,83.82
872.00,83.69
871.00,83.56
870.00,83.44
869.00,83.32
868.00,83.19
867.00,83.06
866.00,82.94
865.00,82.81
864.00,82.68
863.00,82.55
862.00,82.42
861.00,82.29
860.00,82.15
859.00,82.01
858.00,81.88
857.00,81.74
856.00,81.59
855.00,81.45
854.00,81.31
853.00,81.17
852.00,81.02
851.00,80.88
850.00,80.75
849.00,80.61
848.00,80.47
847.00,80.33
846.00,80.20
845.00,80.06
844.00,79.92
843.00,79.78
842.00,79.63
841.00,79.49
840.00,79.34
839.00,79.20
838.00,79.06
837.00,78.92
836.00,78.77
835.00,78.62
834.00,78.48
833.00,78.33
832.00,78.18
831.00,78.03
830.00,77.90
829.00,77.75
828.00,77.60
827.00,77.45
826.00,77.29
825.00,77.13
824.00,76.96
823.00,76.80
822.00,76.63
821.00,76.46
820.00,76.28
819.00,76.11
818.00,75.94
817.00,75.77
816.00,75.59
815.00,75.42
814.00,75.26
813.00,75.11
812.00,74.96
811.00,74.82
810.00,74.69
809.00,74.55
808.00,74.39
807.00,74.24
806.00,74.10
805.00,73.95
804.00,73.79
803.00,73.64
802.00,73.50
801.00,73.35
800.00,73.19
799.00,73.03
798.00,72.89
797.00,72.74
796.00,72.57
795.00,72.42
794.00,72.27
793.00,72.12
792.00,71.97
791.00,71.81
790.00,71.67
789.00,71.52
788.00,71.36
787.00,71.20
786.00,71.05
785.00,70.90
784.00,70.75
783.00,70.60
782.00,70.45
781.00,70.30
780.00,70.15
779.00,69.99
778.00,69.84
777.00,69.69
776.00,69.54
775.00,69.38
774.00,69.24
773.00,69.09
772.00,68.93
771.00,68.77
770.00,68.63
769.00,68.47
768.00,68.31
767.00,68.15
766.00,68.01
765.00,67.86
764.00,67.70
763.00,67.54
762.00,67.40
761.00,67.25
760.00,67.10
759.00,66.95
758.00,66.80
757.00,66.65
756.00,66.49
755.00,66.34
754.00,66.20
753.00,66.05
752.00,65.90
751.00,65.75
750.00,65.61
749.00,65.47
748.00,65.31
747.00,65.16
746.00,65.02
745.00,64.88
744.00,64.72
743.00,64.57
742.00,64.43
741.00,64.29
740.00,64.13
739.00,63.98
738.00,63.85
737.00,63.71
736.00,63.56
735.00,63.41
734.00,63.28
733.00,63.14
732.00,62.98
731.00,62.83
730.00,62.69
729.00,62.54
728.00,62.39
727.00,62.24
726.00,62.11
725.00,61.97
724.00,61.82
723.00,61.67
722.00,61.53
721.00,61.39
720.00,61.23
719.00,61.08
718.00,60.95
717.00,60.82
716.00,60.68
715.00,60.54
714.00,60.41
713.00,60.28
712.00,60.13
711.00,59.98
710.00,59.85
709.00,59.72
708.00,59.56
707.00,59.41
706.00,59.27
705.00,59.13
704.00,58.98
703.00,58.84
702.00,58.72
701.00,58.60
700.00,58.46
699.00,58.32
698.00,58.21
697.00,58.09
696.00,57.95
695.00,57.81
694.00,57.69
693.00,57.57
692.00,57.42
691.00,57.29
690.00,57.19
689.00,57.08
688.00,56.94
687.00,56.82
686.00,56.71
685.00,56.60
684.00,56.45
683.00,56.31
682.00,56.21
681.00,56.09
680.00,55.96
679.00,55.83
678.00,55.72
677.00,55.61
676.00,55.47
675.00,55.35
674.00,55.25
673.00,55.15
672.00,55.03
671.00,54.92
670.00,54.84
669.00,54.74
668.00,54.57
667.00,54.41
666.00,54.33
665.00,54.24
664.00,54.11
663.00,53.99
662.00,53.90
661.00,53.81
660.00,53.68
659.00,53.56
658.00,53.48
657.00,53.39
656.00,53.27
655.00,53.16
654.00,53.09
653.00,53.01
652.00,52.87
651.00,52.74
650.00,52.68
649.00,52.60
648.00,52.49
647.00,52.39
646.00,52.33
645.00,52.26
644.00,52.13
643.00,52.01
642.00,51.94
641.00,51.86
640.00,51.72
639.00,51.62
638.00,51.59
637.00,51.55
636.00,51.43
635.00,51.34
634.00,51.31
633.00,51.24
632.00,51.09
631.00,50.95
630.00,50.89
629.00,50.83
628.00,50.71
627.00,50.60
626.00,50.57
625.00,50.52
624.00,50.39
623.00,50.28
622.00,50.28
621.00,50.26
620.00,50.14
619.00,50.04
618.00,50.06
617.00,50.06
616.00,49.93
615.00,49.82
614.00,49.83
613.00,49.81
612.00,49.67
611.00,49.56
610.00,49.57
609.00,49.55
608.00,49.42
607.00,49.35
606.00,49.41
605.00,49.42
604.00,49.29
603.00,49.20
602.00,49.26
601.00,49.30
600.00,49.19
599.00,49.11
598.00,49.14
597.00,49.12
596.00,48.95
595.00,48.82
594.00,48.87
593.00,48.94
592.00,48.88
591.00,48.84
590.00,48.95
589.00,48.98
588.00,48.82
587.00,48.71
586.00,48.82
585.00,48.92
584.00,48.84
583.00,48.78
582.00,48.91
581.00,48.94
580.00,48.68
579.00,48.49
578.00,48.62
577.00,48.72
576.00,48.53
575.00,48.44
574.00,48.69
573.00,48.83
572.00,48.59
571.00,48.40
570.00,48.57
569.00,48.68
568.00,48.45
567.00,48.33
566.00,48.58
565.00,48.70
564.00,48.39
563.00,48.15
562.00,48.30
561.00,48.41
560.00,48.16
559.00,47.99
558.00,48.19
557.00,48.27
556.00,47.96
555.00,47.78
554.00,48.05
553.00,48.27
552.00,48.04
551.00,47.87
550.00,48.15
549.00,48.35
548.00,48.09
547.00,47.96
546.00,48.36
545.00,48.62
544.00,48.28
543.00,48.02
542.00,48.29
541.00,48.34
540.00,47.68
539.00,47.17
538.00,47.51
537.00,47.87
536.00,47.54
535.00,47.35
534.00,47.91
533.00,48.08
532.00,47.13
531.00,46.47
530.00,47.27
529.00,48.08
528.00,47.42
527.00,46.70
526.00,47.63
525.00,48.30
524.00,46.83
523.00,45.56
522.00,46.67
521.00,47.36
520.00,44.86
519.00,43.30
518.00,47.03
517.00,50.21
516.00,46.98
515.00,43.72
514.00,46.77
513.00,49.89
512.00,42.66
511.00,36.58
510.00,43.94
509.00,52.50
508.00,38.47
507.00,15.69
506.00,59.03
505.00,75.11
504.00,86.92
503.00,108.96
502.00,109.29
501.00,64.53
500.00,138.50
499.00,304.46
498.00,77.09
497.00,25.83
496.00,138.06
495.00,141.76
494.00,62.38
493.00,60.73
492.00,145.35
491.00,116.74
490.00,38.69
489.00,78.46
488.00,127.52
487.00,105.61
486.00,146.62
485.00,104.33
484.00,137.55
483.00,104.42
482.00,98.53
481.00,60.52
480.00,107.69
479.00,84.49
478.00,83.28
477.00,137.15
476.00,80.35
475.00,71.52
474.00,86.42
473.00,68.13
472.00,94.73
471.00,105.30
470.00,80.98
469.00,62.63
468.00,103.76
467.00,109.14
466.00,53.28
465.00,59.80
464.00,81.92
463.00,84.96
462.00,60.34
461.00,76.88
460.00,71.03
459.00,68.55
458.00,103.24
457.00,119.93
456.00,122.67
455.00,90.58
454.00,106.47
453.00,91.65
452.00,85.29
451.00,76.69
450.00,86.88
449.00,99.13
448.00,109.95
447.00,125.62
446.00,78.28
445.00,72.32
444.00,71.68
443.00,48.28
442.00,100.88
441.00,111.01
440.00,55.17
439.00,82.49
438.00,58.56
437.00,93.47
436.00,149.51
435.00,126.98
434.00,400.94
433.00,110.36
432.00,71.50
431.00,106.42
430.00,83.81
429.00,90.36
428.00,144.16
427.00,98.82
426.00,108.19
425.00,94.44
424.00,84.04
423.00,90.36
422.00,80.22
421.00,51.09
420.00,92.29
419.00,169.42
418.00,68.19
417.00,40.22
416.00,76.08
415.00,60.61
414.00,95.88
413.00,109.33
412.00,45.06
411.00,87.33
410.00,43.68
409.00,87.80
408.00,412.63
407.00,138.31
406.00,113.43
405.00,106.37
404.00,107.51
403.00,70.28
402.00,154.60
401.00,108.37
400.00,65.96
