Created as New Dataset,Sample 007 By FTIR User 2.0 Date Friday, April 12 2024
cm-1,%T
4000.00,99.96
3999.00,99.96
3998.00,99.95
3997.00,99.95
3996.00,99.96
3995.00,99.96
3994.00,99.96
3993.00,99.95
3992.00,99.95
3991.00,99.95
3990.00,99.95
3989.00,99.95
3988.00,99.96
3987.00,99.96
3986.00,99.96
3985.00,99.96
3984.00,99.96
3983.00,99.95
3982.00,99.95
3981.00,99.95
3980.00,99.95
3979.00,99.95
3978.00,99.94
3977.00,99.94
3976.00,99.94
3975.00,99.94
3974.00,99.94
3973.00,99.95
3972.00,99.95
3971.00,99.96
3970.00,99.95
3969.00,99.95
3968.00,99.95
3967.00,99.95
3966.00,99.95
3965.00,99.95
3964.00,99.95
3963.00,99.95
3962.00,99.95
3961.00,99.94
3960.00,99.94
3959.00,99.94
3958.00,99.94
3957.00,99.94
3956.00,99.94
3955.00,99.93
3954.00,99.92
3953.00,99.92
3952.00,99.92
3951.00,99.92
3950.00,99.92
3949.00,99.92
3948.00,99.92
3947.00,99.91
3946.00,99.91
3945.00,99.90
3944.00,99.90
3943.00,99.90
3942.00,99.91
3941.00,99.92
3940.00,99.93
3939.00,99.93
3938.00,99.92
3937.00,99.92
3936.00,99.92
3935.00,99.92
3934.00,99.92
3933.00,99.91
3932.00,99.91
3931.00,99.91
3930.00,99.90
3929.00,99.90
3928.00,99.89
3927.00,99.89
3926.00,99.88
3925.00,99.88
3924.00,99.89
3923.00,99.89
3922.00,99.88
3921.00,99.88
3920.00,99.87
3919.00,99.87
3918.00,99.87
3917.00,99.87
3916.00,99.88
3915.00,99.89
3914.00,99.90
3913.00,99.91
3912.00,99.91
3911.00,99.91
3910.00,99.91
3909.00,99.90
3908.00,99.88
3907.00,99.87
3906.00,99.85
3905.00,99.84
3904.00,99.82
3903.00,99.81
3902.00,99.80
3901.00,99.79
3900.00,99.79
3899.00,99.79
3898.00,99.80
3897.00,99.82
3896.00,99.82
3895.00,99.83
3894.00,99.84
3893.00,99.85
3892.00,99.85
3891.00,99.85
3890.00,99.84
3889.00,99.84
3888.00,99.84
3887.00,99.83
3886.00,99.81
3885.00,99.81
3884.00,99.82
3883.00,99.82
3882.00,99.82
3881.00,99.82
3880.00,99.82
3879.00,99.82
3878.00,99.83
3877.00,99.83
3876.00,99.82
3875.00,99.80
3874.00,99.80
3873.00,99.81
3872.00,99.81
3871.00,99.80
3870.00,99.77
3869.00,99.76
3868.00,99.76
3867.00,99.76
3866.00,99.76
3865.00,99.76
3864.00,99.78
3863.00,99.79
3862.00,99.80
3861.00,99.79
3860.00,99.78
3859.00,99.76
3858.00,99.75
3857.00,99.74
3856.00,99.73
3855.00,99.74
3854.00,99.74
3853.00,99.73
3852.00,99.72
3851.00,99.72
3850.00,99.73
3849.00,99.75
3848.00,99.77
3847.00,99.78
3846.00,99.79
3845.00,99.79
3844.00,99.79
3843.00,99.78
3842.00,99.77
3841.00,99.76
3840.00,99.74
3839.00,99.73
3838.00,99.71
3837.00,99.71
3836.00,99.71
3835.00,99.72
3834.00,99.72
3833.00,99.73
3832.00,99.74
3831.00,99.75
3830.00,99.76
3829.00,99.77
3828.00,99.77
3827.00,99.76
3826.00,99.75
3825.00,99.75
3824.00,99.74
3823.00,99.73
3822.00,99.72
3821.00,99.70
3820.00,99.69
3819.00,99.70
3818.00,99.70
3817.00,99.69
3816.00,99.68
3815.00,99.70
3814.00,99.73
3813.00,99.75
3812.00,99.76
3811.00,99.76
3810.00,99.76
3809.00,99.77
3808.00,99.76
3807.00,99.74
3806.00,99.73
3805.00,99.72
3804.00,99.71
3803.00,99.68
3802.00,99.65
3801.00,99.64
3800.00,99.65
3799.00,99.67
3798.00,99.68
3797.00,99.68
3796.00,99.68
3795.00,99.70
3794.00,99.72
3793.00,99.74
3792.00,99.75
3791.00,99.75
3790.00,99.76
3789.00,99.76
3788.00,99.76
3787.00,99.75
3786.00,99.75
3785.00,99.74
3784.00,99.74
3783.00,99.73
3782.00,99.73
3781.00,99.73
3780.00,99.72
3779.00,99.72
3778.00,99.72
3777.00,99.72
3776.00,99.71
3775.00,99.69
3774.00,99.69
3773.00,99.68
3772.00,99.68
3771.00,99.67
3770.00,99.66
3769.00,99.65
3768.00,99.65
3767.00,99.64
3766.00,99.63
3765.00,99.62
3764.00,99.61
3763.00,99.61
3762.00,99.60
3761.00,99.59
3760.00,99.58
3759.00,99.58
3758.00,99.57
3757.00,99.56
3756.00,99.54
3755.00,99.52
3754.00,99.49
3753.00,99.47
3752.00,99.45
3751.00,99.43
3750.00,99.38
3749.00,99.34
3748.00,99.33
3747.00,99.32
3746.00,99.31
3745.00,99.30
3744.00,99.31
3743.00,99.33
3742.00,99.36
3741.00,99.36
3740.00,99.35
3739.00,99.34
3738.00,99.32
3737.00,99.31
3736.00,99.31
3735.00,99.30
3734.00,99.29
3733.00,99.28
3732.00,99.27
3731.00,99.26
3730.00,99.27
3729.00,99.28
3728.00,99.28
3727.00,99.27
3726.00,99.26
3725.00,99.25
3724.00,99.25
3723.00,99.24
3722.00,99.24
3721.00,99.23
3720.00,99.22
3719.00,99.21
3718.00,99.19
3717.00,99.17
3716.00,99.14
3715.00,99.11
3714.00,99.08
3713.00,99.05
3712.00,99.02
3711.00,98.98
3710.00,98.96
3709.00,98.93
3708.00,98.91
3707.00,98.90
3706.00,98.88
3705.00,98.87
3704.00,98.85
3703.00,98.83
3702.00,98.80
3701.00,98.76
3700.00,98.72
3699.00,98.68
3698.00,98.63
3697.00,98.59
3696.00,98.54
3695.00,98.49
3694.00,98.43
3693.00,98.37
3692.00,98.31
3691.00,98.25
3690.00,98.16
3689.00,98.05
3688.00,97.93
3687.00,97.84
3686.00,97.77
3685.00,97.70
3684.00,97.63
3683.00,97.55
3682.00,97.46
3681.00,97.35
3680.00,97.24
3679.00,97.14
3678.00,97.03
3677.00,96.89
3676.00,96.71
3675.00,96.50
3674.00,96.35
3673.00,96.25
3672.00,96.14
3671.00,96.01
3670.00,95.87
3669.00,95.75
3668.00,95.66
3667.00,95.59
3666.00,95.50
3665.00,95.40
3664.00,95.29
3663.00,95.18
3662.00,95.06
3661.00,94.94
3660.00,94.82
3659.00,94.71
3658.00,94.59
3657.00,94.45
3656.00,94.30
3655.00,94.18
3654.00,94.07
3653.00,93.97
3652.00,93.85
3651.00,93.71
3650.00,93.57
3649.00,93.42
3648.00,93.28
3647.00,93.17
3646.00,93.10
3645.00,93.04
3644.00,92.98
3643.00,92.90
3642.00,92.83
3641.00,92.74
3640.00,92.65
3639.00,92.54
3638.00,92.43
3637.00,92.33
3636.00,92.24
3635.00,92.17
3634.00,92.10
3633.00,92.03
3632.00,91.97
3631.00,91.88
3630.00,91.78
3629.00,91.65
3628.00,91.53
3627.00,91.44
3626.00,91.37
3625.00,91.29
3624.00,91.20
3623.00,91.10
3622.00,91.00
3621.00,90.90
3620.00,90.78
3619.00,90.66
3618.00,90.55
3617.00,90.45
3616.00,90.36
3615.00,90.27
3614.00,90.16
3613.00,90.05
3612.00,89.95
3611.00,89.85
3610.00,89.74
3609.00,89.63
3608.00,89.52
3607.00,89.41
3606.00,89.32
3605.00,89.23
3604.00,89.13
3603.00,89.03
3602.00,88.92
3601.00,88.80
3600.00,88.68
3599.00,88.58
3598.00,88.47
3597.00,88.37
3596.00,88.25
3595.00,88.12
3594.00,87.99
3593.00,87.88
3592.00,87.78
3591.00,87.68
3590.00,87.57
3589.00,87.44
3588.00,87.28
3587.00,87.13
3586.00,87.00
3585.00,86.90
3584.00,86.81
3583.00,86.72
3582.00,86.61
3581.00,86.51
3580.00,86.39
3579.00,86.28
3578.00,86.17
3577.00,86.05
3576.00,85.93
3575.00,85.81
3574.00,85.68
3573.00,85.55
3572.00,85.41
3571.00,85.28
3570.00,85.15
3569.00,85.02
3568.00,84.88
3567.00,84.73
3566.00,84.59
3565.00,84.47
3564.00,84.35
3563.00,84.23
3562.00,84.11
3561.00,83.99
3560.00,83.86
3559.00,83.75
3558.00,83.63
3557.00,83.51
3556.00,83.38
3555.00,83.25
3554.00,83.11
3553.00,82.96
3552.00,82.81
3551.00,82.67
3550.00,82.54
3549.00,82.41
3548.00,82.25
3547.00,82.09
3546.00,81.92
3545.00,81.78
3544.00,81.67
3543.00,81.56
3542.00,81.46
3541.00,81.35
3540.00,81.23
3539.00,81.09
3538.00,80.95
3537.00,80.80
3536.00,80.66
3535.00,80.54
3534.00,80.43
3533.00,80.31
3532.00,80.18
3531.00,80.05
3530.00,79.90
3529.00,79.76
3528.00,79.61
3527.00,79.46
3526.00,79.31
3525.00,79.16
3524.00,79.02
3523.00,78.89
3522.00,78.79
3521.00,78.68
3520.00,78.57
3519.00,78.44
3518.00,78.30
3517.00,78.16
3516.00,78.01
3515.00,77.86
3514.00,77.73
3513.00,77.60
3512.00,77.48
3511.00,77.36
3510.00,77.23
3509.00,77.10
3508.00,76.96
3507.00,76.82
3506.00,76.67
3505.00,76.51
3504.00,76.34
3503.00,76.19
3502.00,76.06
3501.00,75.95
3500.00,75.83
3499.00,75.71
3498.00,75.57
3497.00,75.43
3496.00,75.30
3495.00,75.17
3494.00,75.06
3493.00,74.94
3492.00,74.82
3491.00,74.70
3490.00,74.56
3489.00,74.41
3488.00,74.26
3487.00,74.12
3486.00,74.01
3485.00,73.90
3484.00,73.79
3483.00,73.65
3482.00,73.49
3481.00,73.33
3480.00,73.19
3479.00,73.08
3478.00,72.97
3477.00,72.87
3476.00,72.75
3475.00,72.62
3474.00,72.48
3473.00,72.34
3472.00,72.19
3471.00,72.02
3470.00,71.86
3469.00,71.71
3468.00,71.57
3467.00,71.46
3466.00,71.37
3465.00,71.27
3464.00,71.17
3463.00,71.05
3462.00,70.91
3461.00,70.78
3460.00,70.65
3459.00,70.55
3458.00,70.45
3457.00,70.34
3456.00,70.23
3455.00,70.10
3454.00,69.97
3453.00,69.84
3452.00,69.71
3451.00,69.58
3450.00,69.45
3449.00,69.31
3448.00,69.16
3447.00,69.03
3446.00,68.92
3445.00,68.82
3444.00,68.71
3443.00,68.59
3442.00,68.46
3441.00,68.32
3440.00,68.17
3439.00,68.01
3438.00,67.85
3437.00,67.70
3436.00,67.57
3435.00,67.45
3434.00,67.35
3433.00,67.24
3432.00,67.13
3431.00,67.01
3430.00,66.90
3429.00,66.80
3428.00,66.71
3427.00,66.63
3426.00,66.54
3425.00,66.45
3424.00,66.34
3423.00,66.22
3422.00,66.09
3421.00,65.97
3420.00,65.87
3419.00,65.77
3418.00,65.68
3417.00,65.58
3416.00,65.45
3415.00,65.32
3414.00,65.19
3413.00,65.07
3412.00,64.97
3411.00,64.87
3410.00,64.78
3409.00,64.69
3408.00,64.61
3407.00,64.53
3406.00,64.44
3405.00,64.33
3404.00,64.21
3403.00,64.08
3402.00,63.97
3401.00,63.87
3400.00,63.79
3399.00,63.74
3398.00,63.69
3397.00,63.63
3396.00,63.55
3395.00,63.46
3394.00,63.36
3393.00,63.26
3392.00,63.19
3391.00,63.14
3390.00,63.11
3389.00,63.09
3388.00,63.06
3387.00,63.01
3386.00,62.96
3385.00,62.90
3384.00,62.84
3383.00,62.77
3382.00,62.70
3381.00,62.63
3380.00,62.57
3379.00,62.51
3378.00,62.46
3377.00,62.42
3376.00,62.38
3375.00,62.34
3374.00,62.29
3373.00,62.23
3372.00,62.16
3371.00,62.08
3370.00,62.01
3369.00,61.96
3368.00,61.93
3367.00,61.92
3366.00,61.93
3365.00,61.93
3364.00,61.93
3363.00,61.91
3362.00,61.87
3361.00,61.85
3360.00,61.83
3359.00,61.83
3358.00,61.83
3357.00,61.82
3356.00,61.81
3355.00,61.78
3354.00,61.75
3353.00,61.71
3352.00,61.67
3351.00,61.64
3350.00,61.64
3349.00,61.66
3348.00,61.68
3347.00,61.69
3346.00,61.68
3345.00,61.65
3344.00,61.63
3343.00,61.61
3342.00,61.60
3341.00,61.58
3340.00,61.57
3339.00,61.56
3338.00,61.56
3337.00,61.59
3336.00,61.62
3335.00,61.66
3334.00,61.68
3333.00,61.70
3332.00,61.71
3331.00,61.71
3330.00,61.71
3329.00,61.70
3328.00,61.68
3327.00,61.66
3326.00,61.66
3325.00,61.67
3324.00,61.69
3323.00,61.72
3322.00,61.74
3321.00,61.76
3320.00,61.78
3319.00,61.79
3318.00,61.81
3317.00,61.81
3316.00,61.82
3315.00,61.82
3314.00,61.81
3313.00,61.81
3312.00,61.80
3311.00,61.78
3310.00,61.76
3309.00,61.75
3308.00,61.74
3307.00,61.75
3306.00,61.77
3305.00,61.79
3304.00,61.82
3303.00,61.86
3302.00,61.90
3301.00,61.93
3300.00,61.94
3299.00,61.94
3298.00,61.92
3297.00,61.91
3296.00,61.90
3295.00,61.90
3294.00,61.91
3293.00,61.93
3292.00,61.95
3291.00,61.99
3290.00,62.03
3289.00,62.06
3288.00,62.09
3287.00,62.10
3286.00,62.12
3285.00,62.13
3284.00,62.14
3283.00,62.15
3282.00,62.17
3281.00,62.18
3280.00,62.19
3279.00,62.20
3278.00,62.20
3277.00,62.19
3276.00,62.19
3275.00,62.19
3274.00,62.19
3273.00,62.20
3272.00,62.21
3271.00,62.24
3270.00,62.27
3269.00,62.31
3268.00,62.36
3267.00,62.40
3266.00,62.44
3265.00,62.47
3264.00,62.49
3263.00,62.52
3262.00,62.55
3261.00,62.57
3260.00,62.60
3259.00,62.61
3258.00,62.62
3257.00,62.64
3256.00,62.66
3255.00,62.70
3254.00,62.75
3253.00,62.80
3252.00,62.84
3251.00,62.88
3250.00,62.90
3249.00,62.91
3248.00,62.93
3247.00,62.96
3246.00,63.02
3245.00,63.09
3244.00,63.17
3243.00,63.24
3242.00,63.30
3241.00,63.36
3240.00,63.40
3239.00,63.45
3238.00,63.50
3237.00,63.54
3236.00,63.57
3235.00,63.60
3234.00,63.65
3233.00,63.72
3232.00,63.81
3231.00,63.92
3230.00,64.02
3229.00,64.12
3228.00,64.21
3227.00,64.29
3226.00,64.37
3225.00,64.44
3224.00,64.52
3223.00,64.60
3222.00,64.68
3221.00,64.75
3220.00,64.84
3219.00,64.93
3218.00,65.03
3217.00,65.14
3216.00,65.24
3215.00,65.35
3214.00,65.45
3213.00,65.57
3212.00,65.68
3211.00,65.80
3210.00,65.91
3209.00,66.01
3208.00,66.12
3207.00,66.23
3206.00,66.34
3205.00,66.47
3204.00,66.59
3203.00,66.71
3202.00,66.84
3201.00,66.97
3200.00,67.10
3199.00,67.23
3198.00,67.36
3197.00,67.50
3196.00,67.64
3195.00,67.78
3194.00,67.91
3193.00,68.04
3192.00,68.18
3191.00,68.31
3190.00,68.45
3189.00,68.60
3188.00,68.75
3187.00,68.90
3186.00,69.06
3185.00,69.21
3184.00,69.35
3183.00,69.50
3182.00,69.65
3181.00,69.80
3180.00,69.95
3179.00,70.11
3178.00,70.28
3177.00,70.45
3176.00,70.61
3175.00,70.77
3174.00,70.93
3173.00,71.09
3172.00,71.24
3171.00,71.40
3170.00,71.56
3169.00,71.72
3168.00,71.89
3167.00,72.05
3166.00,72.22
3165.00,72.38
3164.00,72.55
3163.00,72.71
3162.00,72.88
3161.00,73.04
3160.00,73.21
3159.00,73.37
3158.00,73.53
3157.00,73.68
3156.00,73.83
3155.00,73.97
3154.00,74.11
3153.00,74.27
3152.00,74.45
3151.00,74.64
3150.00,74.83
3149.00,75.02
3148.00,75.20
3147.00,75.38
3146.00,75.55
3145.00,75.71
3144.00,75.88
3143.00,76.03
3142.00,76.18
3141.00,76.33
3140.00,76.48
3139.00,76.64
3138.00,76.82
3137.00,77.00
3136.00,77.19
3135.00,77.36
3134.00,77.53
3133.00,77.69
3132.00,77.85
3131.00,78.01
3130.00,78.17
3129.00,78.34
3128.00,78.50
3127.00,78.67
3126.00,78.83
3125.00,78.98
3124.00,79.13
3123.00,79.27
3122.00,79.41
3121.00,79.55
3120.00,79.70
3119.00,79.86
3118.00,80.01
3117.00,80.17
3116.00,80.34
3115.00,80.50
3114.00,80.67
3113.00,80.84
3112.00,81.00
3111.00,81.14
3110.00,81.29
3109.00,81.44
3108.00,81.60
3107.00,81.76
3106.00,81.91
3105.00,82.06
3104.00,82.20
3103.00,82.34
3102.00,82.48
3101.00,82.63
3100.00,82.77
3099.00,82.92
3098.00,83.07
3097.00,83.22
3096.00,83.36
3095.00,83.50
3094.00,83.64
3093.00,83.77
3092.00,83.90
3091.00,84.03
3090.00,84.16
3089.00,84.30
3088.00,84.43
3087.00,84.56
3086.00,84.70
3085.00,84.83
3084.00,84.95
3083.00,85.08
3082.00,85.21
3081.00,85.33
3080.00,85.46
3079.00,85.59
3078.00,85.72
3077.00,85.85
3076.00,85.99
3075.00,86.12
3074.00,86.25
3073.00,86.37
3072.00,86.49
3071.00,86.60
3070.00,86.71
3069.00,86.82
3068.00,86.93
3067.00,87.05
3066.00,87.17
3065.00,87.29
3064.00,87.41
3063.00,87.53
3062.00,87.65
3061.00,87.76
3060.00,87.87
3059.00,87.98
3058.00,88.08
3057.00,88.18
3056.00,88.29
3055.00,88.40
3054.00,88.50
3053.00,88.61
3052.00,88.71
3051.00,88.82
3050.00,88.92
3049.00,89.02
3048.00,89.12
3047.00,89.22
3046.00,89.31
3045.00,89.41
3044.00,89.50
3043.00,89.59
3042.00,89.69
3041.00,89.78
3040.00,89.87
3039.00,89.97
3038.00,90.06
3037.00,90.14
3036.00,90.23
3035.00,90.31
3034.00,90.40
3033.00,90.49
3032.00,90.58
3031.00,90.66
3030.00,90.74
3029.00,90.82
3028.00,90.90
3027.00,90.98
3026.00,91.06
3025.00,91.13
3024.00,91.19
3023.00,91.25
3022.00,91.31
3021.00,91.37
3020.00,91.42
3019.00,91.46
3018.00,91.50
3017.00,91.53
3016.00,91.55
3015.00,91.55
3014.00,91.55
3013.00,91.53
3012.00,91.50
3011.00,91.46
3010.00,91.40
3009.00,91.33
3008.00,91.24
3007.00,91.13
3006.00,91.01
3005.00,90.88
3004.00,90.74
3003.00,90.60
3002.00,90.46
3001.00,90.31
3000.00,90.16
2999.00,90.02
2998.00,89.89
2997.00,89.78
2996.00,89.66
2995.00,89.56
2994.00,89.46
2993.00,89.35
2992.00,89.25
2991.00,89.16
2990.00,89.07
2989.00,88.97
2988.00,88.85
2987.00,88.69
2986.00,88.45
2985.00,88.09
2984.00,87.61
2983.00,87.11
2982.00,86.74
2981.00,86.58
2980.00,86.66
2979.00,86.89
2978.00,87.21
2977.00,87.53
2976.00,87.81
2975.00,88.02
2974.00,88.15
2973.00,88.21
2972.00,88.29
2971.00,88.44
2970.00,88.68
2969.00,88.99
2968.00,89.30
2967.00,89.59
2966.00,89.83
2965.00,90.06
2964.00,90.26
2963.00,90.45
2962.00,90.61
2961.00,90.76
2960.00,90.89
2959.00,91.02
2958.00,91.14
2957.00,91.25
2956.00,91.36
2955.00,91.47
2954.00,91.58
2953.00,91.68
2952.00,91.79
2951.00,91.89
2950.00,91.98
2949.00,92.07
2948.00,92.16
2947.00,92.25
2946.00,92.35
2945.00,92.45
2944.00,92.53
2943.00,92.61
2942.00,92.67
2941.00,92.72
2940.00,92.76
2939.00,92.81
2938.00,92.86
2937.00,92.92
2936.00,92.98
2935.00,93.04
2934.00,93.09
2933.00,93.14
2932.00,93.20
2931.00,93.27
2930.00,93.34
2929.00,93.43
2928.00,93.52
2927.00,93.60
2926.00,93.69
2925.00,93.78
2924.00,93.86
2923.00,93.93
2922.00,93.99
2921.00,94.05
2920.00,94.10
2919.00,94.14
2918.00,94.17
2917.00,94.20
2916.00,94.23
2915.00,94.25
2914.00,94.27
2913.00,94.28
2912.00,94.29
2911.00,94.30
2910.00,94.30
2909.00,94.30
2908.00,94.29
2907.00,94.29
2906.00,94.30
2905.00,94.30
2904.00,94.31
2903.00,94.31
2902.00,94.32
2901.00,94.33
2900.00,94.33
2899.00,94.34
2898.00,94.34
2897.00,94.34
2896.00,94.33
2895.00,94.30
2894.00,94.27
2893.00,94.23
2892.00,94.19
2891.00,94.15
2890.00,94.13
2889.00,94.13
2888.00,94.14
2887.00,94.17
2886.00,94.19
2885.00,94.21
2884.00,94.25
2883.00,94.32
2882.00,94.41
2881.00,94.54
2880.00,94.68
2879.00,94.81
2878.00,94.94
2877.00,95.06
2876.00,95.16
2875.00,95.25
2874.00,95.34
2873.00,95.41
2872.00,95.48
2871.00,95.55
2870.00,95.63
2869.00,95.70
2868.00,95.78
2867.00,95.86
2866.00,95.93
2865.00,96.01
2864.00,96.08
2863.00,96.15
2862.00,96.23
2861.00,96.30
2860.00,96.38
2859.00,96.45
2858.00,96.51
2857.00,96.57
2856.00,96.62
2855.00,96.68
2854.00,96.73
2853.00,96.78
2852.00,96.82
2851.00,96.87
2850.00,96.93
2849.00,96.98
2848.00,97.03
2847.00,97.07
2846.00,97.11
2845.00,97.15
2844.00,97.19
2843.00,97.22
2842.00,97.26
2841.00,97.29
2840.00,97.33
2839.00,97.36
2838.00,97.38
2837.00,97.41
2836.00,97.43
2835.00,97.45
2834.00,97.47
2833.00,97.49
2832.00,97.51
2831.00,97.53
2830.00,97.56
2829.00,97.58
2828.00,97.60
2827.00,97.63
2826.00,97.65
2825.00,97.68
2824.00,97.70
2823.00,97.72
2822.00,97.74
2821.00,97.76
2820.00,97.78
2819.00,97.81
2818.00,97.83
2817.00,97.86
2816.00,97.88
2815.00,97.90
2814.00,97.92
2813.00,97.95
2812.00,97.97
2811.00,97.99
2810.00,98.01
2809.00,98.03
2808.00,98.05
2807.00,98.06
2806.00,98.08
2805.00,98.09
2804.00,98.11
2803.00,98.12
2802.00,98.14
2801.00,98.16
2800.00,98.19
2799.00,98.21
2798.00,98.23
2797.00,98.24
2796.00,98.25
2795.00,98.26
2794.00,98.28
2793.00,98.29
2792.00,98.31
2791.00,98.33
2790.00,98.34
2789.00,98.36
2788.00,98.36
2787.00,98.37
2786.00,98.38
2785.00,98.39
2784.00,98.40
2783.00,98.41
2782.00,98.42
2781.00,98.44
2780.00,98.45
2779.00,98.46
2778.00,98.48
2777.00,98.49
2776.00,98.50
2775.00,98.51
2774.00,98.52
2773.00,98.52
2772.00,98.52
2771.00,98.53
2770.00,98.53
2769.00,98.54
2768.00,98.55
2767.00,98.56
2766.00,98.57
2765.00,98.57
2764.00,98.58
2763.00,98.59
2762.00,98.60
2761.00,98.61
2760.00,98.62
2759.00,98.63
2758.00,98.64
2757.00,98.65
2756.00,98.65
2755.00,98.66
2754.00,98.67
2753.00,98.68
2752.00,98.69
2751.00,98.70
2750.00,98.71
2749.00,98.72
2748.00,98.72
2747.00,98.73
2746.00,98.73
2745.00,98.73
2744.00,98.73
2743.00,98.74
2742.00,98.74
2741.00,98.75
2740.00,98.75
2739.00,98.76
2738.00,98.76
2737.00,98.77
2736.00,98.78
2735.00,98.78
2734.00,98.79
2733.00,98.80
2732.00,98.80
2731.00,98.81
2730.00,98.81
2729.00,98.82
2728.00,98.83
2727.00,98.84
2726.00,98.85
2725.00,98.86
2724.00,98.86
2723.00,98.87
2722.00,98.87
2721.00,98.88
2720.00,98.88
2719.00,98.88
2718.00,98.89
2717.00,98.90
2716.00,98.90
2715.00,98.91
2714.00,98.91
2713.00,98.92
2712.00,98.93
2711.00,98.93
2710.00,98.94
2709.00,98.94
2708.00,98.95
2707.00,98.95
2706.00,98.96
2705.00,98.96
2704.00,98.97
2703.00,98.97
2702.00,98.97
2701.00,98.98
2700.00,98.98
2699.00,98.98
2698.00,98.99
2697.00,98.99
2696.00,98.99
2695.00,98.99
2694.00,98.99
2693.00,99.00
2692.00,99.00
2691.00,99.00
2690.00,99.01
2689.00,99.01
2688.00,99.01
2687.00,99.01
2686.00,99.01
2685.00,99.01
2684.00,99.01
2683.00,99.01
2682.00,99.02
2681.00,99.02
2680.00,99.02
2679.00,99.03
2678.00,99.03
2677.00,99.03
2676.00,99.03
2675.00,99.03
2674.00,99.03
2673.00,99.03
2672.00,99.02
2671.00,99.02
2670.00,99.02
2669.00,99.02
2668.00,99.01
2667.00,99.01
2666.00,99.01
2665.00,99.01
2664.00,99.01
2663.00,99.01
2662.00,99.02
2661.00,99.02
2660.00,99.03
2659.00,99.03
2658.00,99.04
2657.00,99.04
2656.00,99.04
2655.00,99.05
2654.00,99.05
2653.00,99.05
2652.00,99.06
2651.00,99.06
2650.00,99.06
2649.00,99.06
2648.00,99.06
2647.00,99.06
2646.00,99.07
2645.00,99.07
2644.00,99.08
2643.00,99.08
2642.00,99.08
2641.00,99.08
2640.00,99.09
2639.00,99.10
2638.00,99.11
2637.00,99.11
2636.00,99.12
2635.00,99.12
2634.00,99.13
2633.00,99.13
2632.00,99.13
2631.00,99.13
2630.00,99.14
2629.00,99.14
2628.00,99.15
2627.00,99.15
2626.00,99.16
2625.00,99.16
2624.00,99.16
2623.00,99.17
2622.00,99.17
2621.00,99.17
2620.00,99.18
2619.00,99.18
2618.00,99.18
2617.00,99.18
2616.00,99.19
2615.00,99.19
2614.00,99.19
2613.00,99.20
2612.00,99.20
2611.00,99.20
2610.00,99.20
2609.00,99.19
2608.00,99.19
2607.00,99.18
2606.00,99.18
2605.00,99.19
2604.00,99.19
2603.00,99.19
2602.00,99.20
2601.00,99.20
2600.00,99.21
2599.00,99.21
2598.00,99.21
2597.00,99.21
2596.00,99.21
2595.00,99.21
2594.00,99.21
2593.00,99.21
2592.00,99.21
2591.00,99.22
2590.00,99.22
2589.00,99.22
2588.00,99.22
2587.00,99.21
2586.00,99.21
2585.00,99.21
2584.00,99.21
2583.00,99.22
2582.00,99.22
2581.00,99.22
2580.00,99.22
2579.00,99.22
2578.00,99.22
2577.00,99.22
2576.00,99.22
2575.00,99.21
2574.00,99.21
2573.00,99.21
2572.00,99.21
2571.00,99.21
2570.00,99.21
2569.00,99.21
2568.00,99.21
2567.00,99.20
2566.00,99.20
2565.00,99.20
2564.00,99.20
2563.00,99.20
2562.00,99.20
2561.00,99.20
2560.00,99.20
2559.00,99.20
2558.00,99.19
2557.00,99.19
2556.00,99.19
2555.00,99.19
2554.00,99.19
2553.00,99.18
2552.00,99.18
2551.00,99.18
2550.00,99.18
2549.00,99.18
2548.00,99.18
2547.00,99.18
2546.00,99.18
2545.00,99.18
2544.00,99.18
2543.00,99.17
2542.00,99.17
2541.00,99.17
2540.00,99.17
2539.00,99.17
2538.00,99.17
2537.00,99.17
2536.00,99.16
2535.00,99.16
2534.00,99.16
2533.00,99.16
2532.00,99.15
2531.00,99.15
2530.00,99.15
2529.00,99.15
2528.00,99.14
2527.00,99.14
2526.00,99.14
2525.00,99.14
2524.00,99.15
2523.00,99.15
2522.00,99.15
2521.00,99.15
2520.00,99.14
2519.00,99.14
2518.00,99.13
2517.00,99.13
2516.00,99.13
2515.00,99.12
2514.00,99.12
2513.00,99.12
2512.00,99.12
2511.00,99.12
2510.00,99.12
2509.00,99.12
2508.00,99.11
2507.00,99.11
2506.00,99.11
2505.00,99.11
2504.00,99.11
2503.00,99.11
2502.00,99.11
2501.00,99.11
2500.00,99.10
2499.00,99.10
2498.00,99.10
2497.00,99.10
2496.00,99.10
2495.00,99.10
2494.00,99.10
2493.00,99.11
2492.00,99.10
2491.00,99.10
2490.00,99.10
2489.00,99.09
2488.00,99.09
2487.00,99.09
2486.00,99.10
2485.00,99.09
2484.00,99.09
2483.00,99.09
2482.00,99.08
2481.00,99.08
2480.00,99.08
2479.00,99.08
2478.00,99.08
2477.00,99.08
2476.00,99.08
2475.00,99.08
2474.00,99.08
2473.00,99.08
2472.00,99.08
2471.00,99.07
2470.00,99.07
2469.00,99.07
2468.00,99.07
2467.00,99.07
2466.00,99.07
2465.00,99.06
2464.00,99.06
2463.00,99.05
2462.00,99.05
2461.00,99.05
2460.00,99.05
2459.00,99.04
2458.00,99.04
2457.00,99.04
2456.00,99.03
2455.00,99.03
2454.00,99.03
2453.00,99.03
2452.00,99.03
2451.00,99.02
2450.00,99.02
2449.00,99.02
2448.00,99.02
2447.00,99.01
2446.00,99.01
2445.00,99.01
2444.00,99.01
2443.00,99.00
2442.00,99.00
2441.00,99.00
2440.00,99.00
2439.00,98.99
2438.00,98.99
2437.00,98.99
2436.00,98.99
2435.00,98.99
2434.00,98.99
2433.00,98.99
2432.00,98.98
2431.00,98.98
2430.00,98.98
2429.00,98.97
2428.00,98.97
2427.00,98.96
2426.00,98.96
2425.00,98.96
2424.00,98.95
2423.00,98.95
2422.00,98.95
2421.00,98.95
2420.00,98.94
2419.00,98.94
2418.00,98.94
2417.00,98.93
2416.00,98.92
2415.00,98.92
2414.00,98.92
2413.00,98.91
2412.00,98.91
2411.00,98.91
2410.00,98.91
2409.00,98.91
2408.00,98.91
2407.00,98.90
2406.00,98.90
2405.00,98.90
2404.00,98.89
2403.00,98.89
2402.00,98.89
2401.00,98.88
2400.00,98.88
2399.00,98.87
2398.00,98.87
2397.00,98.86
2396.00,98.86
2395.00,98.85
2394.00,98.85
2393.00,98.85
2392.00,98.84
2391.00,98.84
2390.00,98.84
2389.00,98.83
2388.00,98.82
2387.00,98.81
2386.00,98.80
2385.00,98.79
2384.00,98.78
2383.00,98.78
2382.00,98.79
2381.00,98.80
2380.00,98.82
2379.00,98.84
2378.00,98.86
2377.00,98.87
2376.00,98.87
2375.00,98.85
2374.00,98.83
2373.00,98.80
2372.00,98.78
2371.00,98.77
2370.00,98.77
2369.00,98.77
2368.00,98.76
2367.00,98.75
2366.00,98.75
2365.00,98.74
2364.00,98.73
2363.00,98.73
2362.00,98.73
2361.00,98.73
2360.00,98.72
2359.00,98.71
2358.00,98.71
2357.00,98.71
2356.00,98.70
2355.00,98.69
2354.00,98.68
2353.00,98.69
2352.00,98.69
2351.00,98.69
2350.00,98.68
2349.00,98.66
2348.00,98.64
2347.00,98.64
2346.00,98.64
2345.00,98.64
2344.00,98.62
2343.00,98.59
2342.00,98.57
2341.00,98.57
2340.00,98.58
2339.00,98.59
2338.00,98.59
2337.00,98.59
2336.00,98.59
2335.00,98.59
2334.00,98.59
2333.00,98.59
2332.00,98.58
2331.00,98.57
2330.00,98.56
2329.00,98.53
2328.00,98.50
2327.00,98.47
2326.00,98.45
2325.00,98.43
2324.00,98.42
2323.00,98.43
2322.00,98.43
2321.00,98.43
2320.00,98.42
2319.00,98.41
2318.00,98.40
2317.00,98.39
2316.00,98.39
2315.00,98.39
2314.00,98.39
2313.00,98.38
2312.00,98.37
2311.00,98.36
2310.00,98.35
2309.00,98.34
2308.00,98.33
2307.00,98.33
2306.00,98.32
2305.00,98.31
2304.00,98.30
2303.00,98.28
2302.00,98.27
2301.00,98.27
2300.00,98.26
2299.00,98.26
2298.00,98.25
2297.00,98.25
2296.00,98.24
2295.00,98.24
2294.00,98.24
2293.00,98.24
2292.00,98.23
2291.00,98.23
2290.00,98.23
2289.00,98.22
2288.00,98.22
2287.00,98.21
2286.00,98.20
2285.00,98.19
2284.00,98.19
2283.00,98.18
2282.00,98.18
2281.00,98.18
2280.00,98.18
2279.00,98.17
2278.00,98.16
2277.00,98.16
2276.00,98.15
2275.00,98.14
2274.00,98.13
2273.00,98.12
2272.00,98.11
2271.00,98.10
2270.00,98.09
2269.00,98.08
2268.00,98.08
2267.00,98.07
2266.00,98.07
2265.00,98.06
2264.00,98.05
2263.00,98.05
2262.00,98.04
2261.00,98.03
2260.00,98.02
2259.00,98.01
2258.00,98.00
2257.00,97.99
2256.00,97.98
2255.00,97.97
2254.00,97.96
2253.00,97.95
2252.00,97.94
2251.00,97.93
2250.00,97.93
2249.00,97.93
2248.00,97.92
2247.00,97.91
2246.00,97.89
2245.00,97.88
2244.00,97.87
2243.00,97.86
2242.00,97.85
2241.00,97.85
2240.00,97.84
2239.00,97.83
2238.00,97.82
2237.00,97.81
2236.00,97.81
2235.00,97.81
2234.00,97.80
2233.00,97.80
2232.00,97.78
2231.00,97.76
2230.00,97.75
2229.00,97.75
2228.00,97.74
2227.00,97.73
2226.00,97.72
2225.00,97.71
2224.00,97.69
2223.00,97.68
2222.00,97.67
2221.00,97.66
2220.00,97.65
2219.00,97.64
2218.00,97.64
2217.00,97.63
2216.00,97.61
2215.00,97.59
2214.00,97.58
2213.00,97.57
2212.00,97.56
2211.00,97.55
2210.00,97.56
2209.00,97.55
2208.00,97.55
2207.00,97.53
2206.00,97.52
2205.00,97.51
2204.00,97.49
2203.00,97.49
2202.00,97.49
2201.00,97.49
2200.00,97.48
2199.00,97.47
2198.00,97.45
2197.00,97.44
2196.00,97.43
2195.00,97.43
2194.00,97.44
2193.00,97.43
2192.00,97.42
2191.00,97.40
2190.00,97.39
2189.00,97.38
2188.00,97.36
2187.00,97.34
2186.00,97.34
2185.00,97.33
2184.00,97.33
2183.00,97.34
2182.00,97.35
2181.00,97.36
2180.00,97.34
2179.00,97.32
2178.00,97.30
2177.00,97.28
2176.00,97.27
2175.00,97.26
2174.00,97.27
2173.00,97.27
2172.00,97.27
2171.00,97.27
2170.00,97.27
2169.00,97.25
2168.00,97.23
2167.00,97.21
2166.00,97.22
2165.00,97.22
2164.00,97.21
2163.00,97.19
2162.00,97.18
2161.00,97.19
2160.00,97.18
2159.00,97.18
2158.00,97.19
2157.00,97.19
2156.00,97.20
2155.00,97.21
2154.00,97.21
2153.00,97.20
2152.00,97.17
2151.00,97.16
2150.00,97.17
2149.00,97.18
2148.00,97.17
2147.00,97.17
2146.00,97.18
2145.00,97.18
2144.00,97.17
2143.00,97.17
2142.00,97.16
2141.00,97.16
2140.00,97.15
2139.00,97.15
2138.00,97.15
2137.00,97.15
2136.00,97.15
2135.00,97.15
2134.00,97.16
2133.00,97.16
2132.00,97.16
2131.00,97.16
2130.00,97.16
2129.00,97.16
2128.00,97.16
2127.00,97.16
2126.00,97.16
2125.00,97.16
2124.00,97.16
2123.00,97.15
2122.00,97.15
2121.00,97.15
2120.00,97.15
2119.00,97.15
2118.00,97.16
2117.00,97.16
2116.00,97.16
2115.00,97.16
2114.00,97.16
2113.00,97.16
2112.00,97.16
2111.00,97.16
2110.00,97.16
2109.00,97.16
2108.00,97.16
2107.00,97.15
2106.00,97.15
2105.00,97.16
2104.00,97.16
2103.00,97.16
2102.00,97.17
2101.00,97.18
2100.00,97.18
2099.00,97.18
2098.00,97.19
2097.00,97.20
2096.00,97.20
2095.00,97.20
2094.00,97.20
2093.00,97.21
2092.00,97.22
2091.00,97.22
2090.00,97.23
2089.00,97.23
2088.00,97.23
2087.00,97.23
2086.00,97.23
2085.00,97.23
2084.00,97.24
2083.00,97.24
2082.00,97.26
2081.00,97.27
2080.00,97.27
2079.00,97.28
2078.00,97.29
2077.00,97.29
2076.00,97.29
2075.00,97.29
2074.00,97.30
2073.00,97.30
2072.00,97.30
2071.00,97.31
2070.00,97.33
2069.00,97.34
2068.00,97.33
2067.00,97.33
2066.00,97.34
2065.00,97.35
2064.00,97.36
2063.00,97.36
2062.00,97.38
2061.00,97.39
2060.00,97.39
2059.00,97.38
2058.00,97.39
2057.00,97.40
2056.00,97.41
2055.00,97.42
2054.00,97.43
2053.00,97.44
2052.00,97.45
2051.00,97.45
2050.00,97.46
2049.00,97.47
2048.00,97.48
2047.00,97.49
2046.00,97.50
2045.00,97.50
2044.00,97.50
2043.00,97.50
2042.00,97.52
2041.00,97.54
2040.00,97.55
2039.00,97.55
2038.00,97.57
2037.00,97.58
2036.00,97.58
2035.00,97.58
2034.00,97.59
2033.00,97.61
2032.00,97.61
2031.00,97.62
2030.00,97.63
2029.00,97.64
2028.00,97.65
2027.00,97.66
2026.00,97.69
2025.00,97.71
2024.00,97.71
2023.00,97.71
2022.00,97.72
2021.00,97.73
2020.00,97.73
2019.00,97.73
2018.00,97.73
2017.00,97.73
2016.00,97.74
2015.00,97.75
2014.00,97.77
2013.00,97.79
2012.00,97.79
2011.00,97.79
2010.00,97.80
2009.00,97.81
2008.00,97.81
2007.00,97.81
2006.00,97.83
2005.00,97.84
2004.00,97.85
2003.00,97.86
2002.00,97.89
2001.00,97.91
2000.00,97.92
1999.00,97.92
1998.00,97.93
1997.00,97.92
1996.00,97.91
1995.00,97.90
1994.00,97.92
1993.00,97.93
1992.00,97.94
1991.00,97.95
1990.00,97.98
1989.00,97.99
1988.00,97.99
1987.00,97.99
1986.00,98.00
1985.00,98.00
1984.00,98.00
1983.00,97.99
1982.00,98.00
1981.00,98.02
1980.00,98.02
1979.00,98.03
1978.00,98.05
1977.00,98.07
1976.00,98.07
1975.00,98.08
1974.00,98.09
1973.00,98.10
1972.00,98.10
1971.00,98.10
1970.00,98.12
1969.00,98.13
1968.00,98.13
1967.00,98.13
1966.00,98.14
1965.00,98.14
1964.00,98.14
1963.00,98.14
1962.00,98.16
1961.00,98.17
1960.00,98.17
1959.00,98.17
1958.00,98.18
1957.00,98.19
1956.00,98.19
1955.00,98.19
1954.00,98.21
1953.00,98.22
1952.00,98.22
1951.00,98.22
1950.00,98.24
1949.00,98.24
1948.00,98.24
1947.00,98.24
1946.00,98.25
1945.00,98.26
1944.00,98.26
1943.00,98.26
1942.00,98.28
1941.00,98.28
1940.00,98.27
1939.00,98.27
1938.00,98.28
1937.00,98.29
1936.00,98.29
1935.00,98.29
1934.00,98.30
1933.00,98.30
1932.00,98.30
1931.00,98.30
1930.00,98.30
1929.00,98.29
1928.00,98.28
1927.00,98.28
1926.00,98.29
1925.00,98.29
1924.00,98.29
1923.00,98.29
1922.00,98.30
1921.00,98.30
1920.00,98.30
1919.00,98.30
1918.00,98.31
1917.00,98.31
1916.00,98.31
1915.00,98.31
1914.00,98.31
1913.00,98.32
1912.00,98.32
1911.00,98.31
1910.00,98.32
1909.00,98.33
1908.00,98.33
1907.00,98.33
1906.00,98.33
1905.00,98.33
1904.00,98.32
1903.00,98.32
1902.00,98.33
1901.00,98.33
1900.00,98.33
1899.00,98.33
1898.00,98.33
1897.00,98.34
1896.00,98.33
1895.00,98.33
1894.00,98.34
1893.00,98.35
1892.00,98.34
1891.00,98.34
1890.00,98.34
1889.00,98.34
1888.00,98.33
1887.00,98.33
1886.00,98.33
1885.00,98.34
1884.00,98.34
1883.00,98.34
1882.00,98.34
1881.00,98.34
1880.00,98.34
1879.00,98.33
1878.00,98.34
1877.00,98.34
1876.00,98.34
1875.00,98.34
1874.00,98.34
1873.00,98.35
1872.00,98.35
1871.00,98.34
1870.00,98.34
1869.00,98.34
1868.00,98.33
1867.00,98.32
1866.00,98.32
1865.00,98.32
1864.00,98.31
1863.00,98.31
1862.00,98.31
1861.00,98.32
1860.00,98.31
1859.00,98.30
1858.00,98.30
1857.00,98.31
1856.00,98.30
1855.00,98.30
1854.00,98.30
1853.00,98.30
1852.00,98.30
1851.00,98.29
1850.00,98.29
1849.00,98.29
1848.00,98.29
1847.00,98.28
1846.00,98.28
1845.00,98.28
1844.00,98.27
1843.00,98.25
1842.00,98.25
1841.00,98.24
1840.00,98.23
1839.00,98.23
1838.00,98.23
1837.00,98.23
1836.00,98.23
1835.00,98.22
1834.00,98.23
1833.00,98.23
1832.00,98.22
1831.00,98.21
1830.00,98.21
1829.00,98.20
1828.00,98.19
1827.00,98.17
1826.00,98.17
1825.00,98.16
1824.00,98.15
1823.00,98.14
1822.00,98.14
1821.00,98.14
1820.00,98.13
1819.00,98.12
1818.00,98.12
1817.00,98.12
1816.00,98.11
1815.00,98.10
1814.00,98.09
1813.00,98.08
1812.00,98.07
1811.00,98.05
1810.00,98.05
1809.00,98.04
1808.00,98.03
1807.00,98.02
1806.00,98.02
1805.00,98.01
1804.00,97.99
1803.00,97.97
1802.00,97.97
1801.00,97.96
1800.00,97.95
1799.00,97.93
1798.00,97.92
1797.00,97.91
1796.00,97.90
1795.00,97.88
1794.00,97.87
1793.00,97.86
1792.00,97.83
1791.00,97.80
1790.00,97.79
1789.00,97.78
1788.00,97.76
1787.00,97.74
1786.00,97.73
1785.00,97.72
1784.00,97.70
1783.00,97.67
1782.00,97.65
1781.00,97.64
1780.00,97.61
1779.00,97.59
1778.00,97.58
1777.00,97.57
1776.00,97.55
1775.00,97.53
1774.00,97.52
1773.00,97.50
1772.00,97.46
1771.00,97.42
1770.00,97.38
1769.00,97.34
1768.00,97.31
1767.00,97.29
1766.00,97.28
1765.00,97.26
1764.00,97.23
1763.00,97.19
1762.00,97.16
1761.00,97.13
1760.00,97.09
1759.00,97.05
1758.00,97.02
1757.00,96.99
1756.00,96.96
1755.00,96.92
1754.00,96.89
1753.00,96.84
1752.00,96.79
1751.00,96.74
1750.00,96.70
1749.00,96.66
1748.00,96.60
1747.00,96.55
1746.00,96.51
1745.00,96.46
1744.00,96.41
1743.00,96.37
1742.00,96.34
1741.00,96.30
1740.00,96.23
1739.00,96.17
1738.00,96.12
1737.00,96.07
1736.00,95.99
1735.00,95.91
1734.00,95.83
1733.00,95.74
1732.00,95.65
1731.00,95.57
1730.00,95.50
1729.00,95.44
1728.00,95.36
1727.00,95.28
1726.00,95.20
1725.00,95.12
1724.00,95.01
1723.00,94.91
1722.00,94.84
1721.00,94.76
1720.00,94.66
1719.00,94.53
1718.00,94.39
1717.00,94.23
1716.00,94.06
1715.00,93.91
1714.00,93.79
1713.00,93.68
1712.00,93.55
1711.00,93.42
1710.00,93.29
1709.00,93.17
1708.00,93.02
1707.00,92.85
1706.00,92.66
1705.00,92.48
1704.00,92.31
1703.00,92.16
1702.00,92.02
1701.00,91.83
1700.00,91.55
1699.00,91.27
1698.00,91.05
1697.00,90.83
1696.00,90.56
1695.00,90.30
1694.00,90.11
1693.00,89.94
1692.00,89.75
1691.00,89.52
1690.00,89.29
1689.00,89.05
1688.00,88.83
1687.00,88.62
1686.00,88.42
1685.00,88.16
1684.00,87.79
1683.00,87.45
1682.00,87.22
1681.00,87.01
1680.00,86.79
1679.00,86.58
1678.00,86.39
1677.00,86.18
1676.00,85.93
1675.00,85.64
1674.00,85.38
1673.00,85.17
1672.00,84.96
1671.00,84.71
1670.00,84.43
1669.00,84.15
1668.00,83.89
1667.00,83.68
1666.00,83.50
1665.00,83.32
1664.00,83.10
1663.00,82.85
1662.00,82.60
1661.00,82.40
1660.00,82.20
1659.00,82.01
1658.00,81.84
1657.00,81.68
1656.00,81.51
1655.00,81.30
1654.00,81.08
1653.00,80.86
1652.00,80.70
1651.00,80.60
1650.00,80.51
1649.00,80.39
1648.00,80.23
1647.00,80.08
1646.00,80.00
1645.00,79.96
1644.00,79.91
1643.00,79.84
1642.00,79.79
1641.00,79.76
1640.00,79.74
1639.00,79.71
1638.00,79.70
1637.00,79.74
1636.00,79.86
1635.00,80.03
1634.00,80.18
1633.00,80.28
1632.00,80.35
1631.00,80.43
1630.00,80.54
1629.00,80.72
1628.00,80.93
1627.00,81.15
1626.00,81.35
1625.00,81.55
1624.00,81.79
1623.00,82.11
1622.00,82.43
1621.00,82.69
1620.00,82.87
1619.00,83.03
1618.00,83.24
1617.00,83.61
1616.00,84.04
1615.00,84.40
1614.00,84.65
1613.00,84.85
1612.00,85.06
1611.00,85.29
1610.00,85.53
1609.00,85.80
1608.00,86.06
1607.00,86.31
1606.00,86.54
1605.00,86.74
1604.00,86.93
1603.00,87.11
1602.00,87.27
1601.00,87.41
1600.00,87.55
1599.00,87.67
1598.00,87.80
1597.00,87.96
1596.00,88.14
1595.00,88.35
1594.00,88.56
1593.00,88.76
1592.00,88.94
1591.00,89.11
1590.00,89.26
1589.00,89.40
1588.00,89.53
1587.00,89.65
1586.00,89.75
1585.00,89.84
1584.00,89.94
1583.00,90.04
1582.00,90.14
1581.00,90.23
1580.00,90.32
1579.00,90.39
1578.00,90.44
1577.00,90.54
1576.00,90.68
1575.00,90.82
1574.00,90.89
1573.00,90.91
1572.00,90.93
1571.00,90.94
1570.00,90.97
1569.00,91.00
1568.00,91.02
1567.00,91.02
1566.00,91.00
1565.00,91.00
1564.00,91.00
1563.00,91.00
1562.00,90.99
1561.00,90.97
1560.00,90.98
1559.00,91.04
1558.00,91.10
1557.00,91.09
1556.00,91.08
1555.00,91.08
1554.00,91.11
1553.00,91.15
1552.00,91.18
1551.00,91.22
1550.00,91.29
1549.00,91.37
1548.00,91.45
1547.00,91.50
1546.00,91.54
1545.00,91.62
1544.00,91.72
1543.00,91.82
1542.00,91.90
1541.00,92.00
1540.00,92.15
1539.00,92.27
1538.00,92.34
1537.00,92.37
1536.00,92.39
1535.00,92.41
1534.00,92.47
1533.00,92.56
1532.00,92.63
1531.00,92.67
1530.00,92.69
1529.00,92.71
1528.00,92.74
1527.00,92.78
1526.00,92.82
1525.00,92.86
1524.00,92.87
1523.00,92.87
1522.00,92.88
1521.00,92.91
1520.00,92.93
1519.00,92.93
1518.00,92.91
1517.00,92.88
1516.00,92.87
1515.00,92.85
1514.00,92.83
1513.00,92.81
1512.00,92.78
1511.00,92.76
1510.00,92.73
1509.00,92.69
1508.00,92.66
1507.00,92.65
1506.00,92.63
1505.00,92.58
1504.00,92.54
1503.00,92.50
1502.00,92.46
1501.00,92.45
1500.00,92.44
1499.00,92.44
1498.00,92.44
1497.00,92.42
1496.00,92.39
1495.00,92.35
1494.00,92.30
1493.00,92.24
1492.00,92.15
1491.00,92.06
1490.00,91.95
1489.00,91.85
1488.00,91.77
1487.00,91.70
1486.00,91.63
1485.00,91.56
1484.00,91.49
1483.00,91.41
1482.00,91.32
1481.00,91.22
1480.00,91.14
1479.00,91.05
1478.00,90.96
1477.00,90.86
1476.00,90.74
1475.00,90.63
1474.00,90.52
1473.00,90.47
1472.00,90.50
1471.00,90.57
1470.00,90.62
1469.00,90.66
1468.00,90.68
1467.00,90.68
1466.00,90.65
1465.00,90.59
1464.00,90.54
1463.00,90.52
1462.00,90.54
1461.00,90.57
1460.00,90.62
1459.00,90.70
1458.00,90.84
1457.00,91.07
1456.00,91.29
1455.00,91.43
1454.00,91.52
1453.00,91.60
1452.00,91.69
1451.00,91.77
1450.00,91.84
1449.00,91.91
1448.00,91.98
1447.00,92.04
1446.00,92.08
1445.00,92.11
1444.00,92.13
1443.00,92.14
1442.00,92.15
1441.00,92.16
1440.00,92.17
1439.00,92.16
1438.00,92.15
1437.00,92.14
1436.00,92.13
1435.00,92.12
1434.00,92.10
1433.00,92.07
1432.00,92.04
1431.00,92.02
1430.00,91.98
1429.00,91.95
1428.00,91.92
1427.00,91.88
1426.00,91.84
1425.00,91.79
1424.00,91.75
1423.00,91.71
1422.00,91.67
1421.00,91.62
1420.00,91.56
1419.00,91.50
1418.00,91.45
1417.00,91.40
1416.00,91.37
1415.00,91.33
1414.00,91.29
1413.00,91.26
1412.00,91.22
1411.00,91.19
1410.00,91.17
1409.00,91.14
1408.00,91.11
1407.00,91.07
1406.00,91.03
1405.00,90.99
1404.00,90.95
1403.00,90.89
1402.00,90.83
1401.00,90.76
1400.00,90.67
1399.00,90.58
1398.00,90.49
1397.00,90.40
1396.00,90.31
1395.00,90.21
1394.00,90.14
1393.00,90.09
1392.00,90.06
1391.00,90.03
1390.00,90.00
1389.00,89.96
1388.00,89.90
1387.00,89.84
1386.00,89.78
1385.00,89.71
1384.00,89.63
1383.00,89.56
1382.00,89.52
1381.00,89.52
1380.00,89.59
1379.00,89.70
1378.00,89.84
1377.00,89.97
1376.00,90.10
1375.00,90.24
1374.00,90.38
1373.00,90.52
1372.00,90.63
1371.00,90.74
1370.00,90.85
1369.00,90.97
1368.00,91.08
1367.00,91.19
1366.00,91.26
1365.00,91.31
1364.00,91.34
1363.00,91.38
1362.00,91.41
1361.00,91.43
1360.00,91.43
1359.00,91.42
1358.00,91.39
1357.00,91.35
1356.00,91.31
1355.00,91.25
1354.00,91.19
1353.00,91.11
1352.00,91.02
1351.00,90.91
1350.00,90.79
1349.00,90.66
1348.00,90.53
1347.00,90.41
1346.00,90.30
1345.00,90.20
1344.00,90.13
1343.00,90.08
1342.00,90.05
1341.00,90.05
1340.00,90.10
1339.00,90.20
1338.00,90.33
1337.00,90.46
1336.00,90.60
1335.00,90.74
1334.00,90.87
1333.00,91.00
1332.00,91.13
1331.00,91.26
1330.00,91.38
1329.00,91.49
1328.00,91.60
1327.00,91.71
1326.00,91.81
1325.00,91.90
1324.00,91.98
1323.00,92.06
1322.00,92.12
1321.00,92.18
1320.00,92.23
1319.00,92.29
1318.00,92.33
1317.00,92.37
1316.00,92.40
1315.00,92.42
1314.00,92.43
1313.00,92.43
1312.00,92.43
1311.00,92.42
1310.00,92.41
1309.00,92.40
1308.00,92.38
1307.00,92.38
1306.00,92.37
1305.00,92.36
1304.00,92.35
1303.00,92.35
1302.00,92.33
1301.00,92.32
1300.00,92.30
1299.00,92.27
1298.00,92.25
1297.00,92.22
1296.00,92.20
1295.00,92.19
1294.00,92.18
1293.00,92.16
1292.00,92.16
1291.00,92.15
1290.00,92.14
1289.00,92.13
1288.00,92.12
1287.00,92.12
1286.00,92.11
1285.00,92.10
1284.00,92.08
1283.00,92.06
1282.00,92.04
1281.00,92.01
1280.00,91.97
1279.00,91.94
1278.00,91.90
1277.00,91.85
1276.00,91.81
1275.00,91.77
1274.00,91.73
1273.00,91.70
1272.00,91.67
1271.00,91.66
1270.00,91.65
1269.00,91.64
1268.00,91.64
1267.00,91.65
1266.00,91.65
1265.00,91.65
1264.00,91.66
1263.00,91.67
1262.00,91.68
1261.00,91.69
1260.00,91.69
1259.00,91.69
1258.00,91.67
1257.00,91.64
1256.00,91.59
1255.00,91.54
1254.00,91.49
1253.00,91.43
1252.00,91.39
1251.00,91.36
1250.00,91.35
1249.00,91.36
1248.00,91.37
1247.00,91.38
1246.00,91.37
1245.00,91.36
1244.00,91.33
1243.00,91.29
1242.00,91.25
1241.00,91.20
1240.00,91.16
1239.00,91.13
1238.00,91.10
1237.00,91.08
1236.00,91.06
1235.00,91.06
1234.00,91.06
1233.00,91.05
1232.00,91.05
1231.00,91.05
1230.00,91.06
1229.00,91.06
1228.00,91.06
1227.00,91.06
1226.00,91.06
1225.00,91.06
1224.00,91.06
1223.00,91.07
1222.00,91.07
1221.00,91.06
1220.00,91.06
1219.00,91.06
1218.00,91.06
1217.00,91.06
1216.00,91.06
1215.00,91.07
1214.00,91.08
1213.00,91.09
1212.00,91.11
1211.00,91.13
1210.00,91.15
1209.00,91.17
1208.00,91.19
1207.00,91.21
1206.00,91.23
1205.00,91.24
1204.00,91.25
1203.00,91.26
1202.00,91.26
1201.00,91.25
1200.00,91.24
1199.00,91.23
1198.00,91.21
1197.00,91.18
1196.00,91.15
1195.00,91.12
1194.00,91.08
1193.00,91.03
1192.00,90.98
1191.00,90.92
1190.00,90.86
1189.00,90.80
1188.00,90.73
1187.00,90.66
1186.00,90.59
1185.00,90.52
1184.00,90.46
1183.00,90.40
1182.00,90.34
1181.00,90.29
1180.00,90.25
1179.00,90.21
1178.00,90.19
1177.00,90.18
1176.00,90.17
1175.00,90.18
1174.00,90.18
1173.00,90.18
1172.00,90.18
1171.00,90.18
1170.00,90.18
1169.00,90.17
1168.00,90.17
1167.00,90.17
1166.00,90.15
1165.00,90.12
1164.00,90.09
1163.00,90.04
1162.00,89.99
1161.00,89.92
1160.00,89.83
1159.00,89.72
1158.00,89.59
1157.00,89.44
1156.00,89.27
1155.00,89.10
1154.00,88.92
1153.00,88.73
1152.00,88.54
1151.00,88.36
1150.00,88.19
1149.00,88.03
1148.00,87.89
1147.00,87.77
1146.00,87.67
1145.00,87.59
1144.00,87.52
1143.00,87.47
1142.00,87.43
1141.00,87.39
1140.00,87.37
1139.00,87.36
1138.00,87.37
1137.00,87.40
1136.00,87.45
1135.00,87.53
1134.00,87.62
1133.00,87.70
1132.00,87.76
1131.00,87.81
1130.00,87.82
1129.00,87.80
1128.00,87.73
1127.00,87.65
1126.00,87.58
1125.00,87.55
1124.00,87.59
1123.00,87.74
1122.00,87.99
1121.00,88.31
1120.00,88.66
1119.00,89.01
1118.00,89.33
1117.00,89.61
1116.00,89.82
1115.00,90.00
1114.00,90.13
1113.00,90.23
1112.00,90.30
1111.00,90.36
1110.00,90.41
1109.00,90.45
1108.00,90.49
1107.00,90.53
1106.00,90.56
1105.00,90.58
1104.00,90.58
1103.00,90.58
1102.00,90.56
1101.00,90.52
1100.00,90.47
1099.00,90.40
1098.00,90.32
1097.00,90.22
1096.00,90.10
1095.00,89.97
1094.00,89.82
1093.00,89.66
1092.00,89.48
1091.00,89.29
1090.00,89.10
1089.00,88.91
1088.00,88.73
1087.00,88.55
1086.00,88.38
1085.00,88.22
1084.00,88.08
1083.00,87.96
1082.00,87.87
1081.00,87.81
1080.00,87.79
1079.00,87.81
1078.00,87.86
1077.00,87.94
1076.00,88.03
1075.00,88.13
1074.00,88.25
1073.00,88.37
1072.00,88.51
1071.00,88.65
1070.00,88.80
1069.00,88.95
1068.00,89.09
1067.00,89.23
1066.00,89.34
1065.00,89.42
1064.00,89.48
1063.00,89.50
1062.00,89.49
1061.00,89.44
1060.00,89.34
1059.00,89.21
1058.00,89.03
1057.00,88.79
1056.00,88.50
1055.00,88.15
1054.00,87.74
1053.00,87.28
1052.00,86.76
1051.00,86.22
1050.00,85.66
1049.00,85.11
1048.00,84.58
1047.00,84.10
1046.00,83.70
1045.00,83.37
1044.00,83.12
1043.00,82.95
1042.00,82.86
1041.00,82.83
1040.00,82.83
1039.00,82.84
1038.00,82.82
1037.00,82.74
1036.00,82.62
1035.00,82.46
1034.00,82.36
1033.00,82.40
1032.00,82.70
1031.00,83.33
1030.00,84.23
1029.00,85.28
1028.00,86.33
1027.00,87.28
1026.00,88.06
1025.00,88.70
1024.00,89.20
1023.00,89.60
1022.00,89.92
1021.00,90.19
1020.00,90.41
1019.00,90.58
1018.00,90.72
1017.00,90.81
1016.00,90.86
1015.00,90.86
1014.00,90.79
1013.00,90.62
1012.00,90.35
1011.00,89.97
1010.00,89.51
1009.00,89.08
1008.00,88.78
1007.00,88.73
1006.00,88.93
1005.00,89.29
1004.00,89.69
1003.00,90.06
1002.00,90.32
1001.00,90.49
1000.00,90.56
999.00,90.55
998.00,90.47
997.00,90.33
996.00,90.14
995.00,89.92
994.00,89.69
993.00,89.48
992.00,89.33
991.00,89.26
990.00,89.28
989.00,89.39
988.00,89.56
987.00,89.77
986.00,89.97
985.00,90.15
984.00,90.30
983.00,90.42
982.00,90.49
981.00,90.53
980.00,90.54
979.00,90.52
978.00,90.47
977.00,90.40
976.00,90.30
975.00,90.18
974.00,90.05
973.00,89.91
972.00,89.77
971.00,89.64
970.00,89.51
969.00,89.39
968.00,89.29
967.00,89.21
966.00,89.15
965.00,89.11
964.00,89.08
963.00,89.06
962.00,89.02
961.00,88.95
960.00,88.84
959.00,88.71
958.00,88.56
957.00,88.43
956.00,88.31
955.00,88.20
954.00,88.08
953.00,87.94
952.00,87.80
951.00,87.67
950.00,87.55
949.00,87.43
948.00,87.31
947.00,87.22
946.00,87.15
945.00,87.10
944.00,87.07
943.00,87.06
942.00,87.06
941.00,87.05
940.00,87.04
939.00,87.01
938.00,86.97
937.00,86.91
936.00,86.82
935.00,86.73
934.00,86.62
933.00,86.51
932.00,86.39
931.00,86.28
930.00,86.18
929.00,86.08
928.00,85.98
927.00,85.88
926.00,85.79
925.00,85.69
924.00,85.61
923.00,85.55
922.00,85.51
921.00,85.51
920.00,85.54
919.00,85.61
918.00,85.71
917.00,85.84
916.00,85.97
915.00,86.10
914.00,86.22
913.00,86.32
912.00,86.39
911.00,86.45
910.00,86.48
909.00,86.49
908.00,86.48
907.00,86.46
906.00,86.43
905.00,86.39
904.00,86.33
903.00,86.26
902.00,86.19
901.00,86.11
900.00,86.03
899.00,85.94
898.00,85.85
897.00,85.76
896.00,85.66
895.00,85.56
894.00,85.46
893.00,85.36
892.00,85.24
891.00,85.13
890.00,85.02
889.00,84.90
888.00,84.78
887.00,84.66
886.00,84.54
885.00,84.41
884.00,84.27
883.00,84.14
882.00,84.00
881.00,83.86
880.00,83.70
879.00,83.55
878.00,83.40
877.00,83.25
876.00,83.09
875.00,82.94
874.00,82.80
873.00,82.65
872.00,82.49
871.00,82.34
870.00,82.19
869.00,82.03
868.00,81.87
867.00,81.70
866.00,81.54
865.00,81.38
864.00,81.22
863.00,81.07
862.00,80.93
861.00,80.80
860.00,80.67
859.00,80.54
858.00,80.41
857.00,80.27
856.00,80.12
855.00,79.97
854.00,79.81
853.00,79.64
852.00,79.44
851.00,79.23
850.00,79.00
849.00,78.76
848.00,78.48
847.00,78.17
846.00,77.84
845.00,77.49
844.00,77.10
843.00,76.71
842.00,76.33
841.00,75.97
840.00,75.64
839.00,75.37
838.00,75.17
837.00,75.04
836.00,74.96
835.00,74.93
834.00,74.93
833.00,74.94
832.00,74.95
831.00,74.95
830.00,74.94
829.00,74.92
828.00,74.86
827.00,74.79
826.00,74.71
825.00,74.61
824.00,74.49
823.00,74.37
822.00,74.24
821.00,74.10
820.00,73.96
819.00,73.81
818.00,73.67
817.00,73.51
816.00,73.34
815.00,73.17
814.00,73.02
813.00,72.85
812.00,72.67
811.00,72.49
810.00,72.32
809.00,72.13
808.00,71.93
807.00,71.72
806.00,71.53
805.00,71.35
804.00,71.16
803.00,71.00
802.00,70.86
801.00,70.73
800.00,70.61
799.00,70.50
798.00,70.41
797.00,70.31
796.00,70.19
795.00,70.06
794.00,69.95
793.00,69.82
792.00,69.69
791.00,69.55
790.00,69.43
789.00,69.29
788.00,69.15
787.00,69.00
786.00,68.86
785.00,68.71
784.00,68.54
783.00,68.38
782.00,68.23
781.00,68.07
780.00,67.89
779.00,67.72
778.00,67.55
777.00,67.37
776.00,67.17
775.00,66.97
774.00,66.78
773.00,66.58
772.00,66.37
771.00,66.17
770.00,65.98
769.00,65.81
768.00,65.62
767.00,65.46
766.00,65.32
765.00,65.18
764.00,65.04
763.00,64.90
762.00,64.78
761.00,64.65
760.00,64.51
759.00,64.36
758.00,64.23
757.00,64.09
756.00,63.93
755.00,63.77
754.00,63.63
753.00,63.48
752.00,63.32
751.00,63.16
750.00,63.01
749.00,62.85
748.00,62.68
747.00,62.51
746.00,62.36
745.00,62.20
744.00,62.04
743.00,61.87
742.00,61.73
741.00,61.58
740.00,61.42
739.00,61.26
738.00,61.12
737.00,60.97
736.00,60.80
735.00,60.63
734.00,60.48
733.00,60.32
732.00,60.14
731.00,59.96
730.00,59.78
729.00,59.58
728.00,59.36
727.00,59.14
726.00,58.95
725.00,58.76
724.00,58.55
723.00,58.37
722.00,58.21
721.00,58.04
720.00,57.86
719.00,57.68
718.00,57.53
717.00,57.36
716.00,57.19
715.00,57.03
714.00,56.89
713.00,56.77
712.00,56.65
711.00,56.53
710.00,56.44
709.00,56.34
708.00,56.22
707.00,56.11
706.00,56.01
705.00,55.89
704.00,55.74
703.00,55.58
702.00,55.45
701.00,55.30
700.00,55.12
699.00,54.94
698.00,54.78
697.00,54.63
696.00,54.46
695.00,54.31
694.00,54.19
693.00,54.08
692.00,53.95
691.00,53.83
690.00,53.75
689.00,53.67
688.00,53.56
687.00,53.46
686.00,53.39
685.00,53.31
684.00,53.20
683.00,53.10
682.00,53.02
681.00,52.93
680.00,52.82
679.00,52.71
678.00,52.62
677.00,52.54
676.00,52.41
675.00,52.29
674.00,52.20
673.00,52.09
672.00,51.97
671.00,51.87
670.00,51.84
669.00,51.81
668.00,51.68
667.00,51.49
666.00,51.33
665.00,51.18
664.00,51.01
663.00,50.85
662.00,50.74
661.00,50.62
660.00,50.47
659.00,50.33
658.00,50.22
657.00,50.11
656.00,49.95
655.00,49.80
654.00,49.70
653.00,49.58
652.00,49.41
651.00,49.25
650.00,49.15
649.00,49.05
648.00,48.90
647.00,48.79
646.00,48.73
645.00,48.66
644.00,48.54
643.00,48.44
642.00,48.41
641.00,48.37
640.00,48.29
639.00,48.22
638.00,48.22
637.00,48.19
636.00,48.08
635.00,47.99
634.00,47.97
633.00,47.93
632.00,47.81
631.00,47.71
630.00,47.69
629.00,47.65
628.00,47.52
627.00,47.42
626.00,47.42
625.00,47.39
624.00,47.27
623.00,47.16
622.00,47.17
621.00,47.15
620.00,47.04
619.00,46.95
618.00,46.98
617.00,46.97
616.00,46.82
615.00,46.72
614.00,46.76
613.00,46.77
612.00,46.66
611.00,46.59
610.00,46.64
609.00,46.64
608.00,46.50
607.00,46.39
606.00,46.42
605.00,46.41
604.00,46.28
603.00,46.18
602.00,46.21
601.00,46.20
600.00,46.07
599.00,46.01
598.00,46.11
597.00,46.15
596.00,46.03
595.00,45.95
594.00,46.04
593.00,46.09
592.00,45.97
591.00,45.89
590.00,45.98
589.00,46.01
588.00,45.85
587.00,45.77
586.00,45.92
585.00,46.03
584.00,45.90
583.00,45.79
582.00,45.94
581.00,46.05
580.00,45.89
579.00,45.79
578.00,45.98
577.00,46.07
576.00,45.81
575.00,45.63
574.00,45.78
573.00,45.79
572.00,45.43
571.00,45.21
570.00,45.46
569.00,45.67
568.00,45.51
567.00,45.43
566.00,45.71
565.00,45.83
564.00,45.53
563.00,45.35
562.00,45.57
561.00,45.68
560.00,45.37
559.00,45.18
558.00,45.43
557.00,45.55
556.00,45.22
555.00,44.99
554.00,45.27
553.00,45.51
552.00,45.35
551.00,45.30
550.00,45.73
549.00,46.02
548.00,45.74
547.00,45.55
546.00,45.86
545.00,45.97
544.00,45.46
543.00,45.11
542.00,45.43
541.00,45.62
540.00,45.10
539.00,44.76
538.00,45.23
537.00,45.54
536.00,45.02
535.00,44.72
534.00,45.39
533.00,45.80
532.00,45.05
531.00,44.53
530.00,45.40
529.00,46.15
528.00,45.34
527.00,44.47
526.00,45.28
525.00,45.80
524.00,44.15
523.00,43.08
522.00,44.82
521.00,46.25
520.00,44.35
519.00,42.82
518.00,45.70
517.00,47.62
516.00,43.28
515.00,40.09
514.00,45.05
513.00,49.93
512.00,45.51
511.00,40.11
510.00,51.04
509.00,49.09
508.00,46.99
507.00,3.25
506.00,57.68
505.00,38.97
504.00,92.03
503.00,357.30
502.00,105.42
501.00,67.97
500.00,98.61
499.00,118.73
498.00,82.83
497.00,58.66
496.00,102.80
495.00,110.31
494.00,65.84
493.00,66.29
492.00,190.13
491.00,130.04
490.00,65.04
489.00,76.61
488.00,66.56
487.00,92.16
486.00,82.74
485.00,119.52
484.00,242.82
483.00,120.54
482.00,122.44
481.00,74.48
480.00,98.36
479.00,96.99
478.00,80.90
477.00,48.21
476.00,69.00
475.00,117.19
474.00,70.12
473.00,45.86
472.00,90.57
471.00,84.91
470.00,102.52
469.00,101.78
468.00,82.78
467.00,100.07
466.00,40.93
465.00,42.33
464.00,145.51
463.00,110.10
462.00,47.49
461.00,71.33
460.00,23.11
459.00,69.78
458.00,86.13
457.00,96.57
456.00,121.92
455.00,91.34
454.00,97.41
453.00,85.36
452.00,90.55
451.00,51.52
450.00,86.08
449.00,230.88
448.00,89.25
447.00,61.65
446.00,78.00
445.00,43.19
444.00,94.55
443.00,79.77
442.00,95.99
441.00,108.55
440.00,61.73
439.00,90.66
438.00,59.63
437.00,88.12
436.00,54.74
435.00,99.25
434.00,504.04
433.00,144.83
432.00,57.39
431.00,68.47
430.00,50.19
429.00,106.71
428.00,88.45
427.00,93.55
426.00,88.29
425.00,95.69
424.00,89.92
423.00,56.15
422.00,94.91
421.00,138.90
420.00,87.54
419.00,65.97
418.00,102.49
417.00,101.94
416.00,69.82
415.00,54.30
414.00,102.38
413.00,97.13
412.00,95.88
411.00,109.68
410.00,64.43
409.00,74.96
408.00,81.74
407.00,84.77
406.00,91.25
405.00,90.69
404.00,104.56
403.00,77.54
402.00,216.39
401.00,152.70
400.00,111.96
